"sep=,"
Shimmer_9757_Timestamp_FormattedUnix_CAL,Shimmer_9757_EMG_CH1_24BIT_CAL,Shimmer_9757_EMG_CH2_24BIT_CAL,
yyyy/mm/dd hh:mm:ss.000,mV,mV,
2019/03/02 12:51:52.340,-6.12942490531106,-2.3982845622243,
2019/03/02 12:51:52.346,-5.60635077234317,-2.39188977780618,
2019/03/02 12:51:52.348,-5.59469110902442,-2.39789991353749,
2019/03/02 12:51:52.350,-5.68705487494328,-2.40400621144051,
2019/03/02 12:51:52.352,-5.75734942245675,-2.40607369813208,
2019/03/02 12:51:52.354,-5.9398171432595,-2.42463299727039,
2019/03/02 12:51:52.356,-6.16726471987542,-2.40874219839679,
2019/03/02 12:51:52.358,-6.08889254993906,-2.394197669927,
2019/03/02 12:51:52.360,-5.7658597746523,-2.38547095284513,
2019/03/02 12:51:52.362,-5.62878059889244,-2.39039926414481,
2019/03/02 12:51:52.364,-5.58481044588214,-2.39364473743972,
2019/03/02 12:51:52.366,-5.64397422202121,-2.4057130899882,
2019/03/02 12:51:52.368,-5.74225196149969,-2.40448702229901,
2019/03/02 12:51:52.370,-5.839616160347,-2.41441576652715,
2019/03/02 12:51:52.372,-6.13166067580311,-2.41612264507484,
2019/03/02 12:51:52.374,-6.16365863843663,-2.39902981905498,
2019/03/02 12:51:52.376,-5.8693062308597,-2.3899184532863,
2019/03/02 12:51:52.378,-5.65981693980896,-2.38741823682208,
2019/03/02 12:51:52.380,-5.59233513581774,-2.39443807535625,
2019/03/02 12:51:52.381,-5.61279363784714,-2.40338115732445,
2019/03/02 12:51:52.383,-5.7074412553439,-2.40816522536658,
2019/03/02 12:51:52.385,-5.73701112314198,-2.41220403657802,
2019/03/02 12:51:52.387,-5.90553532904808,-2.42309440252317,
2019/03/02 12:51:52.389,-6.16248065183329,-2.41689194244845,
2019/03/02 12:51:52.391,-6.11177914680391,-2.4008569003173,
2019/03/02 12:51:52.393,-5.78826556065864,-2.38470165547152,
2019/03/02 12:51:52.395,-5.62034236832568,-2.39645748096198,
2019/03/02 12:51:52.397,-5.58086779684239,-2.39441403481333,
2019/03/02 12:51:52.399,-5.61861144923506,-2.41364646915354,
2019/03/02 12:51:52.401,-5.72758723031528,-2.41571395584511,
2019/03/02 12:51:52.403,-5.81057518449329,-2.42525805138644,
2019/03/02 12:51:52.405,-6.11040883585717,-2.41862286153907,
2019/03/02 12:51:52.407,-6.16293742214887,-2.40061649488805,
2019/03/02 12:51:52.409,-5.9054632074193,-2.38703358813527,
2019/03/02 12:51:52.411,-5.6638557510204,-2.38797116930936,
2019/03/02 12:51:52.413,-5.59310443319135,-2.39078391283161,
2019/03/02 12:51:52.415,-5.58697409474541,-2.40398217089758,
2019/03/02 12:51:52.417,-5.69546906496712,-2.41160302300489,
2019/03/02 12:51:52.419,-5.741506704669,-2.42463299727039,
2019/03/02 12:51:52.421,-6.03283000383735,-2.43427325498342,
2019/03/02 12:51:52.422,-6.15534061058449,-2.42713321373461,
2019/03/02 12:51:52.424,-6.14827269096446,-2.40773249559392,
2019/03/02 12:51:52.426,-5.8417076875815,-2.38958188568535,
2019/03/02 12:51:52.428,-5.6245494633376,-2.39364473743972,
2019/03/02 12:51:52.430,-5.56632326837261,-2.40393408981173,
2019/03/02 12:51:52.432,-5.59906648783682,-2.40756421179345,
2019/03/02 12:51:52.434,-5.7113358232978,-2.42482532161379,
2019/03/02 12:51:52.436,-5.77314405915865,-2.43227788992062,
2019/03/02 12:51:52.438,-6.06696757479122,-2.43908136356847,
2019/03/02 12:51:52.440,-6.16365863843663,-2.43021040322905,
2019/03/02 12:51:52.442,-5.94753415753851,-2.41016059042938,
2019/03/02 12:51:52.444,-5.66075452098304,-2.41593032073144,
2019/03/02 12:51:52.446,-5.57723767486068,-2.4234069295812,
2019/03/02 12:51:52.448,-5.57310270147753,-2.42143560506133,
2019/03/02 12:51:52.450,-5.6654664673964,-2.43840822836656,
2019/03/02 12:51:52.452,-5.72090395938205,-2.44095652591664,
2019/03/02 12:51:52.454,-5.96698295676505,-2.45364993258118,
2019/03/02 12:51:52.456,-6.15550889438497,-2.43535507941505,
2019/03/02 12:51:52.458,-6.02944028728489,-2.43278274132205,
2019/03/02 12:51:52.460,-5.85401644555924,-2.42439259184113,
2019/03/02 12:51:52.462,-5.63767559977479,-2.43247021426402,
2019/03/02 12:51:52.463,-5.5677416604052,-2.42920070042619,
2019/03/02 12:51:52.465,-5.58166113475893,-2.44384139106767,
2019/03/02 12:51:52.467,-5.6914542942986,-2.44535594527196,
2019/03/02 12:51:52.469,-5.72559186525248,-2.45648671664636,
2019/03/02 12:51:52.471,-6.02232428657901,-2.46326614975128,
2019/03/02 12:51:52.473,-6.1628653005201,-2.44773595902156,
2019/03/02 12:51:52.475,-5.9670310378509,-2.44165370166147,
2019/03/02 12:51:52.477,-5.65972077763726,-2.43201344394844,
2019/03/02 12:51:52.479,-5.56579437642825,-2.44429816138325,
2019/03/02 12:51:52.481,-5.55252399673351,-2.43843226890949,
2019/03/02 12:51:52.483,-5.63661781588608,-2.45343356769485,
2019/03/02 12:51:52.485,-5.69715190297189,-2.4555731760152,
2019/03/02 12:51:52.487,-5.91455053264505,-2.46785789345001,
2019/03/02 12:51:52.489,-6.132982905664,-2.45826571682283,
2019/03/02 12:51:52.491,-6.06215946620617,-2.44249512066386,
2019/03/02 12:51:52.493,-5.72222618924294,-2.43660518764717,
2019/03/02 12:51:52.495,-5.57721363431775,-2.43497043072825,
2019/03/02 12:51:52.497,-5.55346157790759,-2.43343183598103,
2019/03/02 12:51:52.499,-5.5679339847486,-2.44689454001918,
2019/03/02 12:51:52.501,-5.66616364314123,-2.45504428407084,
2019/03/02 12:51:52.503,-5.72878925746154,-2.45631843284588,
2019/03/02 12:51:52.505,-5.99390836484135,-2.45941966288324,
2019/03/02 12:51:52.506,-6.15647051610198,-2.4506208241726,
2019/03/02 12:51:52.508,-6.01189069094944,-2.4308354573451,
2019/03/02 12:51:52.510,-5.68681446951403,-2.43131626820361,
2019/03/02 12:51:52.512,-5.58305548624859,-2.42554653790155,
2019/03/02 12:51:52.514,-5.55293268596324,-2.44138925568929,
2019/03/02 12:51:52.516,-5.62594381482726,-2.43643690384669,
2019/03/02 12:51:52.518,-5.716095850797,-2.44980344571314,
2019/03/02 12:51:52.520,-5.89281788184061,-2.45451539212649,
2019/03/02 12:51:52.522,-6.13255017589134,-2.45256810814954,
2019/03/02 12:51:52.524,-6.07091022383097,-2.43679751199057,
2019/03/02 12:51:52.526,-5.75703689539872,-2.41917579402635,
2019/03/02 12:51:52.528,-5.60798552926209,-2.43201344394844,
2019/03/02 12:51:52.530,-5.55110560470092,-2.43280678186497,
2019/03/02 12:51:52.532,-5.61440435422314,-2.45134204046035,
2019/03/02 12:51:52.534,-5.66421635916428,-2.45655883827514,
2019/03/02 12:51:52.536,-5.71265805315869,-2.45292871629342,
2019/03/02 12:51:52.538,-5.94775052242484,-2.45482791918452,
2019/03/02 12:51:52.540,-6.16204792206064,-2.45011597277116,
2019/03/02 12:51:52.542,-6.0534327491243,-2.43773509316465,
2019/03/02 12:51:52.544,-5.72422155430574,-2.42566674061617,
2019/03/02 12:51:52.546,-5.59036381129787,-2.43141243037531,
2019/03/02 12:51:52.547,-5.56420770059518,-2.43451366041267,
2019/03/02 12:51:52.549,-5.62854019346319,-2.44523574255734,
2019/03/02 12:51:52.551,-5.72097608101083,-2.44831293205177,
2019/03/02 12:51:52.553,-5.84887176937323,-2.45283255412172,
2019/03/02 12:51:52.555,-6.12497740486988,-2.4529046757505,
2019/03/02 12:51:52.557,-6.10298030809327,-2.4392977284548,
2019/03/02 12:51:52.559,-5.80353130541618,-2.42333480795242,
2019/03/02 12:51:52.561,-5.62113570624221,-2.42552249735862,
2019/03/02 12:51:52.563,-5.5614670787017,-2.42585906495957,
2019/03/02 12:51:52.565,-5.59089270324223,-2.43184516014796,
2019/03/02 12:51:52.567,-5.70308991707443,-2.43593205244526,
2019/03/02 12:51:52.569,-5.7660520989957,-2.44482705332761,
2019/03/02 12:51:52.571,-5.91748347888193,-2.45643863556051,
2019/03/02 12:51:52.573,-6.14130093351614,-2.44920243214,
2019/03/02 12:51:52.575,-6.08357958995258,-2.42573886224495,
2019/03/02 12:51:52.577,-5.7529259625585,-2.41230019874972,
2019/03/02 12:51:52.579,-5.59707112277402,-2.42547441627277,
2019/03/02 12:51:52.581,-5.55259611836228,-2.42662836233318,
2019/03/02 12:51:52.583,-5.6110386782136,-2.42194045646276,
2019/03/02 12:51:52.585,-5.71655262111258,-2.44497129658516,
2019/03/02 12:51:52.587,-5.81543137416419,-2.45331336498022,
2019/03/02 12:51:52.588,-6.10884620056703,-2.44864949965272,
2019/03/02 12:51:52.590,-6.13973829822599,-2.43775913370758,
2019/03/02 12:51:52.592,-5.86014678400518,-2.4239839026114,
2019/03/02 12:51:52.594,-5.63515134276764,-2.42225298352078,
2019/03/02 12:51:52.596,-5.554615523968,-2.42321460523779,
2019/03/02 12:51:52.598,-5.57274209333365,-2.43617245787451,
2019/03/02 12:51:52.600,-5.67388065742024,-2.44021126908596,
2019/03/02 12:51:52.602,-5.73489555536456,-2.44143733677514,
2019/03/02 12:51:52.604,-6.02568996258855,-2.45102951340232,
2019/03/02 12:51:52.606,-6.15632627284443,-2.43629266058914,
2019/03/02 12:51:52.608,-6.10093686194462,-2.42480128107086,
2019/03/02 12:51:52.610,-5.78564514147979,-2.41388687458279,
2019/03/02 12:51:52.612,-5.62524663908243,-2.42520997030059,
2019/03/02 12:51:52.614,-5.56560205208485,-2.42984979508517,
2019/03/02 12:51:52.616,-5.60272065036146,-2.42576290278787,
2019/03/02 12:51:52.618,-5.69647876776998,-2.42920070042619,
2019/03/02 12:51:52.620,-5.76581169356644,-2.44439432355495,
2019/03/02 12:51:52.622,-6.06453947995577,-2.45504428407084,
2019/03/02 12:51:52.624,-6.14024314962743,-2.44069207994446,
2019/03/02 12:51:52.626,-5.88413924584459,-2.42297419980854,
2019/03/02 12:51:52.628,-5.63649761317145,-2.4146561719564,
2019/03/02 12:51:52.630,-5.54716295566117,-2.42482532161379,
2019/03/02 12:51:52.631,-5.55985636232571,-2.43335971435226,
2019/03/02 12:51:52.633,-5.65193164172947,-2.4394900527982,
2019/03/02 12:51:52.635,-5.69921938966346,-2.44090844483079,
2019/03/02 12:51:52.637,-5.98419598549954,-2.44540402635781,
2019/03/02 12:51:52.639,-6.14120477134444,-2.44119693134589,
2019/03/02 12:51:52.641,-5.99530271633101,-2.41994509139996,
2019/03/02 12:51:52.643,-5.67063518412533,-2.41802184796594,
2019/03/02 12:51:52.645,-5.59577293345606,-2.42393582152555,
2019/03/02 12:51:52.647,-5.54516759059838,-2.42612351093175,
2019/03/02 12:51:52.649,-5.57384795830822,-2.43703791741982,
2019/03/02 12:51:52.651,-5.67296711678908,-2.44100460700249,
2019/03/02 12:51:52.653,-5.72626500045439,-2.44249512066386,
2019/03/02 12:51:52.655,-6.0258342058461,-2.45759258162092,
2019/03/02 12:51:52.657,-6.13690151416081,-2.44136521514637,
2019/03/02 12:51:52.659,-5.91986349263153,-2.42138752397547,
2019/03/02 12:51:52.661,-5.64536857351087,-2.41508890172906,
2019/03/02 12:51:52.663,-5.55088923981459,-2.42475319998501,
2019/03/02 12:51:52.665,-5.55586563220012,-2.42917665988326,
2019/03/02 12:51:52.667,-5.64640231685666,-2.43860055270996,
2019/03/02 12:51:52.669,-5.70123879526919,-2.43848034999534,
2019/03/02 12:51:52.671,-5.9348647914169,-2.45244790543492,
2019/03/02 12:51:52.672,-6.13812758185,-2.44626948590312,
2019/03/02 12:51:52.674,-6.01114543411876,-2.43424921444049,
2019/03/02 12:51:52.676,-5.68933872652118,-2.41609860453192,
2019/03/02 12:51:52.678,-5.57149198510154,-2.42044994280139,
2019/03/02 12:51:52.680,-5.54007099549822,-2.43167687634749,
2019/03/02 12:51:52.682,-5.60334570447751,-2.42804675436577,
2019/03/02 12:51:52.684,-5.65320579050451,-2.43179707906211,
2019/03/02 12:51:52.686,-5.70818651217459,-2.44771191847864,
2019/03/02 12:51:52.688,-6.00145709531988,-2.45612610850248,
2019/03/02 12:51:52.690,-6.15517232678401,-2.43727832284907,
2019/03/02 12:51:52.692,-5.96501163224518,-2.42251742949296,
2019/03/02 12:51:52.694,-5.66520202142422,-2.41794972633716,
2019/03/02 12:51:52.696,-5.55776483509121,-2.42600330821713,
2019/03/02 12:51:52.698,-5.5475716448909,-2.43162879526164,
2019/03/02 12:51:52.700,-5.6295018151802,-2.44670221567578,
2019/03/02 12:51:52.702,-5.69169469972786,-2.43396072792539,
2019/03/02 12:51:52.704,-5.89524597667606,-2.45951582505494,
2019/03/02 12:51:52.706,-6.12702085101853,-2.44848121585225,
2019/03/02 12:51:52.708,-6.05958712811317,-2.43191728177674,
2019/03/02 12:51:52.710,-5.72395710833356,-2.41268484743653,
2019/03/02 12:51:52.712,-5.59137351410073,-2.4256907811591,
2019/03/02 12:51:52.713,-5.54026331984162,-2.42939302476959,
2019/03/02 12:51:52.715,-5.60038871769771,-2.43436941715512,
2019/03/02 12:51:52.717,-5.70203213318572,-2.4256907811591,
2019/03/02 12:51:52.719,-5.8095414411475,-2.45427498669724,
2019/03/02 12:51:52.721,-5.96924276780003,-2.45247194597784,
2019/03/02 12:51:52.723,-6.13747848719102,-2.43917752574017,
2019/03/02 12:51:52.725,-6.00705854182147,-2.42994595725687,
2019/03/02 12:51:52.727,-5.68301606373184,-2.42109903746037,
2019/03/02 12:51:52.729,-5.56632326837261,-2.42129136180377,
2019/03/02 12:51:52.731,-5.54004695495529,-2.42633987581808,
2019/03/02 12:51:52.733,-5.60630269125732,-2.43655710656132,
2019/03/02 12:51:52.735,-5.69532482170957,-2.43376840358199,
2019/03/02 12:51:52.737,-5.85733404048292,-2.45194305403348,
2019/03/02 12:51:52.739,-6.10995206554159,-2.45064486471552,
2019/03/02 12:51:52.741,-6.07475671069901,-2.42867180848183,
2019/03/02 12:51:52.743,-5.76398461230412,-2.42198853754861,
2019/03/02 12:51:52.745,-5.584209432309,-2.42698897047706,
2019/03/02 12:51:52.747,-5.54170575241714,-2.42472915944209,
2019/03/02 12:51:52.749,-5.59649414974381,-2.43516275507165,
2019/03/02 12:51:52.751,-5.69938767346394,-2.42996999779979,
2019/03/02 12:51:52.753,-5.76061893629459,-2.44884182399613,
2019/03/02 12:51:52.755,-6.06461160158455,-2.44540402635781,
2019/03/02 12:51:52.756,-6.13548312212822,-2.4308354573451,
2019/03/02 12:51:52.758,-6.04323955892399,-2.42230106460663,
2019/03/02 12:51:52.760,-5.71929324300606,-2.41537738824416,
2019/03/02 12:51:52.762,-5.58755106777562,-2.42511380812889,
2019/03/02 12:51:52.764,-5.54665810425974,-2.42071438877357,
2019/03/02 12:51:52.766,-5.61928458443696,-2.42972959237054,
2019/03/02 12:51:52.768,-5.70672003905615,-2.43170091689041,
2019/03/02 12:51:52.770,-5.82776417268485,-2.43602821461696,
2019/03/02 12:51:52.772,-6.09533541544303,-2.44759171576401,
2019/03/02 12:51:52.774,-6.1036774838381,-2.4332154710947,
2019/03/02 12:51:52.776,-5.79475650724846,-2.41924791565513,
2019/03/02 12:51:52.778,-5.60312933959119,-2.41804588850886,
2019/03/02 12:51:52.780,-5.53446954899663,-2.4281669570804,
2019/03/02 12:51:52.782,-5.56817439017785,-2.42090671311697,
2019/03/02 12:51:52.784,-5.67150064367064,-2.43485022801362,
2019/03/02 12:51:52.786,-5.73434262287728,-2.44242299903508,
2019/03/02 12:51:52.788,-6.0310750442038,-2.44689454001918,
2019/03/02 12:51:52.790,-6.13985850094062,-2.43547528212968,
2019/03/02 12:51:52.792,-5.92113764140657,-2.4147523341281,
2019/03/02 12:51:52.794,-5.64099319469848,-2.41477637467103,
2019/03/02 12:51:52.796,-5.58416135122315,-2.4210269158316,
2019/03/02 12:51:52.797,-5.54360495530823,-2.42458491618453,
2019/03/02 12:51:52.799,-5.59608546051408,-2.43862459325289,
2019/03/02 12:51:52.801,-5.70222445752912,-2.43852843108119,
2019/03/02 12:51:52.803,-5.80067048080808,-2.44775999956449,
2019/03/02 12:51:52.805,-6.08581536044463,-2.44884182399613,
2019/03/02 12:51:52.807,-6.12375133718069,-2.42280591600807,
2019/03/02 12:51:52.809,-5.84490507979056,-2.41410323946912,
2019/03/02 12:51:52.811,-5.6180825572907,-2.41593032073144,
2019/03/02 12:51:52.813,-5.56408749788056,-2.4308354573451,
2019/03/02 12:51:52.815,-5.57154006618739,-2.42020953737214,
2019/03/02 12:51:52.817,-5.66690889997191,-2.43160475471871,
2019/03/02 12:51:52.819,-5.70208021427157,-2.44530786418611,
2019/03/02 12:51:52.821,-6.00532762273085,-2.44119693134589,
2019/03/02 12:51:52.823,-6.13985850094062,-2.43672539036179,
2019/03/02 12:51:52.825,-5.95404914467126,-2.41254060417898,
2019/03/02 12:51:52.827,-5.66313453473264,-2.41314161775211,
2019/03/02 12:51:52.829,-5.57262189061903,-2.41816609122349,
2019/03/02 12:51:52.831,-5.55040842895608,-2.42758998405019,
2019/03/02 12:51:52.833,-5.59053209509835,-2.42811887599455,
2019/03/02 12:51:52.835,-5.68311222590354,-2.43184516014796,
2019/03/02 12:51:52.837,-5.75412798970477,-2.44189410709072,
2019/03/02 12:51:52.838,-6.06571746655911,-2.4468224183904,
2019/03/02 12:51:52.840,-6.1451714609271,-2.43504255235702,
2019/03/02 12:51:52.842,-5.90125611240738,-2.41956044271315,
2019/03/02 12:51:52.844,-5.62250601718895,-2.41701214516308,
2019/03/02 12:51:52.846,-5.55338945627882,-2.41845457773859,
2019/03/02 12:51:52.848,-5.55699553771761,-2.43268657915035,
2019/03/02 12:51:52.850,-5.64546473568258,-2.43819186348023,
2019/03/02 12:51:52.852,-5.70845095814677,-2.43936985008357,
2019/03/02 12:51:52.854,-5.97676745773563,-2.44456260735543,
2019/03/02 12:51:52.856,-6.15235958326176,-2.43316739000885,
2019/03/02 12:51:52.858,-6.01140988009094,-2.4146561719564,
2019/03/02 12:51:52.860,-5.69780099763087,-2.41528122607246,
2019/03/02 12:51:52.862,-5.58827228406337,-2.42453683509868,
2019/03/02 12:51:52.864,-5.55343753736467,-2.423791578268,
2019/03/02 12:51:52.866,-5.63685822131533,-2.423791578268,
2019/03/02 12:51:52.868,-5.70647963362689,-2.4377831742505,
2019/03/02 12:51:52.870,-5.73660243391225,-2.44437028301203,
2019/03/02 12:51:52.872,-6.0486727216251,-2.44410583703985,
2019/03/02 12:51:52.874,-6.1582014351926,-2.43802357967976,
2019/03/02 12:51:52.876,-5.94231735972373,-2.42174813211935,
2019/03/02 12:51:52.878,-5.65161911467144,-2.42032974008676,
2019/03/02 12:51:52.880,-5.56968894438214,-2.41609860453192,
2019/03/02 12:51:52.881,-5.55483188885433,-2.43153263308994,
2019/03/02 12:51:52.883,-5.64714757368734,-2.43400880901124,
2019/03/02 12:51:52.885,-5.70631134982642,-2.44033147180058,
2019/03/02 12:51:52.887,-5.93551388607588,-2.44985152679899,
2019/03/02 12:51:52.889,-6.14702258273235,-2.44489917495638,
2019/03/02 12:51:52.891,-6.04054701811636,-2.42256551057881,
2019/03/02 12:51:52.893,-5.71373987759032,-2.41518506390076,
2019/03/02 12:51:52.895,-5.58485852696799,-2.41936811836975,
2019/03/02 12:51:52.897,-5.55730806477563,-2.42811887599455,
2019/03/02 12:51:52.899,-5.6223617739314,-2.43480214692777,
2019/03/02 12:51:52.901,-5.71592756699652,-2.4443462424691,
2019/03/02 12:51:52.903,-5.85151622909501,-2.45117375665988,
2019/03/02 12:51:52.905,-6.11608240398754,-2.44417795866862,
2019/03/02 12:51:52.907,-6.15505212406939,-2.4397785393133,
2019/03/02 12:51:52.909,-5.97445956561481,-2.41624284778947,
2019/03/02 12:51:52.911,-5.6679426433177,-2.41513698281491,
2019/03/02 12:51:52.913,-5.56980914709677,-2.42511380812889,
2019/03/02 12:51:52.915,-5.54384536073749,-2.43230193046354,
2019/03/02 12:51:52.917,-5.62591977428434,-2.43578780918771,
2019/03/02 12:51:52.919,-5.70544589028111,-2.4370138768769,
2019/03/02 12:51:52.921,-5.89615951730722,-2.44610120210265,
2019/03/02 12:51:52.922,-6.12968935128323,-2.44814464825129,
2019/03/02 12:51:52.924,-6.07545388644384,-2.4239839026114,
2019/03/02 12:51:52.926,-5.74686774574134,-2.41119433377516,
2019/03/02 12:51:52.928,-5.59017148695447,-2.41708426679185,
2019/03/02 12:51:52.930,-5.54836498280744,-2.42511380812889,
2019/03/02 12:51:52.932,-5.60149458267227,-2.43114798440313,
2019/03/02 12:51:52.934,-5.70159940341307,-2.43388860629661,
2019/03/02 12:51:52.936,-5.79369872335975,-2.44939475648341,
2019/03/02 12:51:52.938,-6.08297857637945,-2.44586079667339,
2019/03/02 12:51:52.940,-6.12353497229437,-2.42917665988326,
2019/03/02 12:51:52.942,-5.84966510728976,-2.41626688833239,
2019/03/02 12:51:52.944,-5.61567850299817,-2.42266167275051,
2019/03/02 12:51:52.946,-5.58317568896322,-2.42453683509868,
2019/03/02 12:51:52.948,-5.5583177675785,-2.42270975383636,
2019/03/02 12:51:52.950,-5.62197712524459,-2.42847948413843,
2019/03/02 12:51:52.952,-5.69854625446156,-2.43287890349375,
2019/03/02 12:51:52.954,-5.84324628232872,-2.4465339318753,
2019/03/02 12:51:52.956,-6.1082451869939,-2.44292785043651,
2019/03/02 12:51:52.958,-6.07896380571093,-2.42643603798978,
2019/03/02 12:51:52.960,-5.77141314006803,-2.41273292852238,
2019/03/02 12:51:52.962,-5.60293701524778,-2.42225298352078,
2019/03/02 12:51:52.963,-5.54634557720171,-2.4261715920176,
2019/03/02 12:51:52.965,-5.59175816278754,-2.43119606548898,
2019/03/02 12:51:52.967,-5.67830411731849,-2.44049975560106,
2019/03/02 12:51:52.969,-5.75537809793688,-2.44316825586576,
2019/03/02 12:51:52.971,-6.06232775000665,-2.44797636445082,
2019/03/02 12:51:52.973,-6.14695046110357,-2.43797549859391,
2019/03/02 12:51:52.975,-5.90267450443997,-2.41802184796594,
2019/03/02 12:51:52.977,-5.64048834329705,-2.41333394209551,
2019/03/02 12:51:52.979,-5.56091414621442,-2.42768614622189,
2019/03/02 12:51:52.981,-5.56702044411744,-2.43400880901124,
2019/03/02 12:51:52.983,-5.60882694826447,-2.4419662287195,
2019/03/02 12:51:52.985,-5.70131091689796,-2.43932176899772,
2019/03/02 12:51:52.987,-5.81975867189074,-2.45151032426083,
2019/03/02 12:51:52.989,-6.11526502552808,-2.44326441803746,
2019/03/02 12:51:52.991,-6.12858348630867,-2.43006615997149,
2019/03/02 12:51:52.993,-5.82317242898612,-2.42165196994765,
2019/03/02 12:51:52.995,-5.60094165018499,-2.4210269158316,
2019/03/02 12:51:52.997,-5.55473572668263,-2.4283592814238,
2019/03/02 12:51:52.999,-5.5765885802017,-2.42453683509868,
2019/03/02 12:51:53.001,-5.68794437503152,-2.44605312101679,
2019/03/02 12:51:53.003,-5.73744385291463,-2.45261618923539,
2019/03/02 12:51:53.005,-6.02540147607344,-2.45016405385702,
2019/03/02 12:51:53.006,-6.15909093528083,-2.43910540411139,
2019/03/02 12:51:53.008,-5.94272604895346,-2.41516102335783,
2019/03/02 12:51:53.010,-5.65298942561818,-2.41626688833239,
2019/03/02 12:51:53.012,-5.57218916084637,-2.42323864578072,
2019/03/02 12:51:53.014,-5.56858307940758,-2.43333567380933,
2019/03/02 12:51:53.016,-5.66152381835665,-2.43845630945241,
2019/03/02 12:51:53.018,-5.71193683687093,-2.44052379614398,
2019/03/02 12:51:53.020,-5.78059662746548,-2.45175072969008,
2019/03/02 12:51:53.022,-6.08451717112667,-2.4557655003586,
2019/03/02 12:51:53.024,-6.14433004192472,-2.44131713406052,
2019/03/02 12:51:53.026,-5.88142266449404,-2.42042590225846,
2019/03/02 12:51:53.028,-5.63748327543139,-2.41660345593335,
2019/03/02 12:51:53.030,-5.56661175488771,-2.42357521338167,
2019/03/02 12:51:53.032,-5.58069951304192,-2.43552336321553,
2019/03/02 12:51:53.034,-5.67849644166189,-2.43516275507165,
2019/03/02 12:51:53.036,-5.73888628549015,-2.4415815800327,
2019/03/02 12:51:53.038,-6.00489489295819,-2.45086122960185,
2019/03/02 12:51:53.040,-6.15904285419498,-2.43994682311378,
2019/03/02 12:51:53.042,-5.97917151202816,-2.42251742949296,
2019/03/02 12:51:53.044,-5.6612834129274,-2.42631583527515,
2019/03/02 12:51:53.046,-5.5724055257327,-2.43655710656132,
2019/03/02 12:51:53.047,-5.56615498457213,-2.42653220016148,
2019/03/02 12:51:53.049,-5.63964692429466,-2.43417709281171,
2019/03/02 12:51:53.051,-5.71313886401719,-2.43910540411139,
2019/03/02 12:51:53.053,-5.90392461267208,-2.45711177076242,
2019/03/02 12:51:53.055,-6.1245206345543,-2.44626948590312,
2019/03/02 12:51:53.057,-6.13786313587782,-2.43802357967976,
2019/03/02 12:51:53.059,-5.92058470891929,-2.42109903746037,
2019/03/02 12:51:53.061,-5.65609065565554,-2.42590714604542,
2019/03/02 12:51:53.063,-5.58221406724621,-2.42761402459312,
2019/03/02 12:51:53.065,-5.57565099902761,-2.43323951163763,
2019/03/02 12:51:53.067,-5.66272584550292,-2.43494639018532,
2019/03/02 12:51:53.069,-5.72131264861178,-2.43191728177674,
2019/03/02 12:51:53.071,-5.97941191745741,-2.4558616625303,
2019/03/02 12:51:53.073,-6.15478767809721,-2.43881691759629,
2019/03/02 12:51:53.075,-6.03073847660285,-2.41715638842063,
2019/03/02 12:51:53.077,-5.71044632320956,-2.42107499691745,
2019/03/02 12:51:53.079,-5.59634990648626,-2.42374349718215,
2019/03/02 12:51:53.081,-5.56637134945846,-2.43167687634749,
2019/03/02 12:51:53.083,-5.63370891019212,-2.4281669570804,
2019/03/02 12:51:53.085,-5.7277074330299,-2.43706195796275,
2019/03/02 12:51:53.087,-5.88264873218323,-2.44660605350408,
2019/03/02 12:51:53.088,-6.13348775706543,-2.44268744500726,
2019/03/02 12:51:53.090,-6.1060574975877,-2.42799867327992,
2019/03/02 12:51:53.092,-5.79141487178185,-2.4143676854413,
2019/03/02 12:51:53.094,-5.67690976582882,-2.41715638842063,
2019/03/02 12:51:53.096,-5.58156497258722,-2.42297419980854,
2019/03/02 12:51:53.098,-5.57983405349661,-2.43559548484431,
2019/03/02 12:51:53.100,-5.6591918856929,-2.43343183598103,
2019/03/02 12:51:53.102,-5.72006254037967,-2.43677347144764,
2019/03/02 12:51:53.104,-5.93178760192247,-2.45102951340232,
2019/03/02 12:51:53.106,-6.15394625909483,-2.44194218817657,
2019/03/02 12:51:53.108,-6.0647558448421,-2.42689280830536,
2019/03/02 12:51:53.110,-5.73460706884945,-2.42145964560425,
2019/03/02 12:51:53.112,-5.61267343513252,-2.41677173973382,
2019/03/02 12:51:53.114,-5.56512124122634,-2.42761402459312,
2019/03/02 12:51:53.116,-5.62024620615397,-2.43879287705337,
2019/03/02 12:51:53.118,-5.71532655342339,-2.42850352468135,
2019/03/02 12:51:53.120,-5.83478401121903,-2.45083718905892,
2019/03/02 12:51:53.122,-6.12040970171408,-2.44977940517021,
2019/03/02 12:51:53.124,-6.13093945951535,-2.42802271382285,
2019/03/02 12:51:53.126,-5.83076924055051,-2.4166515370192,
2019/03/02 12:51:53.128,-5.62962201789483,-2.42249338895004,
2019/03/02 12:51:53.130,-5.56415961950933,-2.42275783492221,
2019/03/02 12:51:53.131,-5.56226041661824,-2.43247021426402,
2019/03/02 12:51:53.133,-5.65060941186858,-2.43614841733159,
2019/03/02 12:51:53.135,-5.7343666634202,-2.43855247162411,
2019/03/02 12:51:53.137,-5.89469304418878,-2.44155753948977,
2019/03/02 12:51:53.139,-6.14389731215207,-2.44739939142061,
2019/03/02 12:51:53.141,-6.09677784801855,-2.43309526838008,
2019/03/02 12:51:53.143,-5.76670119365468,-2.41662749647627,
2019/03/02 12:51:53.145,-5.61279363784714,-2.41917579402635,
2019/03/02 12:51:53.147,-5.56742913334717,-2.42631583527515,
2019/03/02 12:51:53.149,-5.61868357086383,-2.4326384980645,
2019/03/02 12:51:53.151,-5.72419751376281,-2.437302363392,
2019/03/02 12:51:53.153,-5.79526135864989,-2.45040445928627,
2019/03/02 12:51:53.155,-6.08992629328485,-2.45151032426083,
2019/03/02 12:51:53.157,-6.15147008317352,-2.42790251110822,
2019/03/02 12:51:53.159,-5.8755808125632,-2.40816522536658,
2019/03/02 12:51:53.161,-5.64303664084712,-2.42499360541426,
2019/03/02 12:51:53.163,-5.57384795830822,-2.42321460523779,
2019/03/02 12:51:53.165,-5.59283998721917,-2.4283592814238,
2019/03/02 12:51:53.167,-5.69231975384391,-2.43427325498342,
2019/03/02 12:51:53.169,-5.72220214870002,-2.43607629570281,
2019/03/02 12:51:53.171,-5.85267017515542,-2.45158244588961,
2019/03/02 12:51:53.172,-6.1332713921791,-2.44574059395877,
2019/03/02 12:51:53.174,-6.11221187657657,-2.42831120033795,
2019/03/02 12:51:53.176,-5.80170422415386,-2.41451192869885,
2019/03/02 12:51:53.178,-5.61615931385668,-2.42492148378549,
2019/03/02 12:51:53.180,-5.56278930856259,-2.42326268632365,
2019/03/02 12:51:53.182,-5.60810573197672,-2.42655624070441,
2019/03/02 12:51:53.184,-5.70912409334867,-2.4371100390486,
2019/03/02 12:51:53.186,-5.76311915275882,-2.44256724229263,
2019/03/02 12:51:53.188,-6.07506923775704,-2.45208729729104,
2019/03/02 12:51:53.190,-6.17454900438178,-2.43451366041267,
2019/03/02 12:51:53.192,-5.93556196716173,-2.41746891547866,
2019/03/02 12:51:53.194,-5.65207588498702,-2.41960852379901,
2019/03/02 12:51:53.196,-5.5746893773106,-2.42326268632365,
2019/03/02 12:51:53.198,-5.56778974149105,-2.42903241662571,
2019/03/02 12:51:53.200,-5.66770223788844,-2.44033147180058,
2019/03/02 12:51:53.202,-5.73056825763801,-2.43751872827833,
2019/03/02 12:51:53.204,-5.98251314749477,-2.45340952715193,
2019/03/02 12:51:53.206,-6.103388997323,-2.44826485096592,
2019/03/02 12:51:53.208,-6.15399434018068,-2.42600330821713,
2019/03/02 12:51:53.210,-5.86827248751392,-2.42641199744685,
2019/03/02 12:51:53.212,-5.63101636938449,-2.42367137555337,
2019/03/02 12:51:53.213,-5.55867837572237,-2.42218086189201,
2019/03/02 12:51:53.215,-5.58764722994732,-2.43275870077912,
2019/03/02 12:51:53.217,-5.68157363115632,-2.43956217442697,
2019/03/02 12:51:53.219,-5.74619461053943,-2.444057755954,
2019/03/02 12:51:53.221,-6.04968242442796,-2.45276043249294,
2019/03/02 12:51:53.223,-6.18354016743583,-2.43694175524812,
2019/03/02 12:51:53.225,-5.97133429503452,-2.42177217266228,
2019/03/02 12:51:53.227,-5.67647703605617,-2.41657941539042,
2019/03/02 12:51:53.229,-5.58985895989644,-2.42715725427754,
2019/03/02 12:51:53.231,-5.5676454982335,-2.43040272757245,
2019/03/02 12:51:53.233,-5.65685995302915,-2.43773509316465,
2019/03/02 12:51:53.235,-5.71987021603627,-2.43713407959152,
2019/03/02 12:51:53.237,-5.9421971570091,-2.44773595902156,
2019/03/02 12:51:53.239,-6.15589354307177,-2.44590887775924,
2019/03/02 12:51:53.241,-6.06944375071252,-2.42766210567897,
2019/03/02 12:51:53.243,-5.71989425657919,-2.41960852379901,
2019/03/02 12:51:53.245,-5.63164142350055,-2.42081055094527,
2019/03/02 12:51:53.247,-5.56697236303159,-2.42879201119646,
2019/03/02 12:51:53.249,-5.58199770235988,-2.43451366041267,
2019/03/02 12:51:53.251,-5.68034756346713,-2.43287890349375,
2019/03/02 12:51:53.253,-5.74066528566662,-2.43807166076561,
2019/03/02 12:51:53.255,-6.01354948841129,-2.45030829711457,
2019/03/02 12:51:53.256,-6.15187877240325,-2.45064486471552,
2019/03/02 12:51:53.258,-6.01316483972448,-2.42444067292698,
2019/03/02 12:51:53.260,-5.70330628196076,-2.41482445575688,
2019/03/02 12:51:53.262,-5.60505258302521,-2.42619563256053,
2019/03/02 12:51:53.264,-5.58598843248547,-2.42590714604542,
2019/03/02 12:51:53.266,-5.6592880478646,-2.44261532337848,
2019/03/02 12:51:53.268,-5.73677071771273,-2.44675029676163,
2019/03/02 12:51:53.270,-5.9305855747762,-2.44504341821393,
2019/03/02 12:51:53.272,-6.15024401548434,-2.4463416075319,
2019/03/02 12:51:53.274,-6.08620000913143,-2.43119606548898,
2019/03/02 12:51:53.276,-5.76867251817455,-2.41143473920442,
2019/03/02 12:51:53.278,-5.61853932760628,-2.42679664613366,
2019/03/02 12:51:53.280,-5.56877540375098,-2.42884009228231,
2019/03/02 12:51:53.282,-5.58464216208166,-2.43643690384669,
2019/03/02 12:51:53.284,-5.67878492817699,-2.43848034999534,
2019/03/02 12:51:53.286,-5.72710641945677,-2.44052379614398,
2019/03/02 12:51:53.288,-5.97917151202816,-2.45615014904541,
2019/03/02 12:51:53.290,-6.18180924834521,-2.44965920245558,
2019/03/02 12:51:53.292,-6.05405780324036,-2.43150859254701,
2019/03/02 12:51:53.294,-5.71708151305694,-2.41780548307961,
2019/03/02 12:51:53.296,-5.62005388181057,-2.42698897047706,
2019/03/02 12:51:53.297,-5.58014658055463,-2.43138838983238,
2019/03/02 12:51:53.299,-5.64724373585905,-2.43523487670043,
2019/03/02 12:51:53.301,-5.73790062323021,-2.43295102512253,
2019/03/02 12:51:53.303,-5.88322570521343,-2.44485109387053,
2019/03/02 12:51:53.305,-6.14882562345175,-2.45223154054859,
2019/03/02 12:51:53.307,-6.13596393298673,-2.42996999779979,
2019/03/02 12:51:53.309,-5.81971059080489,-2.41441576652715,
2019/03/02 12:51:53.311,-5.64416654636461,-2.42167601049058,
2019/03/02 12:51:53.313,-5.58365649982172,-2.42754190296434,
2019/03/02 12:51:53.315,-5.61320232707687,-2.43102778168851,
2019/03/02 12:51:53.317,-5.71686514817061,-2.43917752574017,
2019/03/02 12:51:53.319,-5.72840460877474,-2.44189410709072,
2019/03/02 12:51:53.321,-5.93452822381595,-2.44422603975447,
2019/03/02 12:51:53.323,-6.15139796154475,-2.44047571505813,
2019/03/02 12:51:53.325,-6.07672803521888,-2.42742170024972,
2019/03/02 12:51:53.327,-5.7704274778081,-2.42227702406371,
2019/03/02 12:51:53.329,-5.6390218701786,-2.42977767345639,
2019/03/02 12:51:53.331,-5.58658944605861,-2.42831120033795,
2019/03/02 12:51:53.333,-5.63409355887893,-2.42766210567897,
2019/03/02 12:51:53.335,-5.73597737979619,-2.43023444377197,
2019/03/02 12:51:53.337,-5.84596286367927,-2.44485109387053,
2019/03/02 12:51:53.338,-6.13144431091678,-2.45256810814954,
2019/03/02 12:51:53.340,-6.1512537182872,-2.42646007853271,
2019/03/02 12:51:53.342,-5.8528384589559,-2.42032974008676,
2019/03/02 12:51:53.344,-5.65087385784076,-2.41528122607246,
2019/03/02 12:51:53.346,-5.59690283897354,-2.42646007853271,
2019/03/02 12:51:53.348,-5.60459581270963,-2.43367224141028,
2019/03/02 12:51:53.350,-5.70700852557125,-2.43876883651044,
2019/03/02 12:51:53.352,-5.7530221247302,-2.4394900527982,
2019/03/02 12:51:53.354,-6.05035555962987,-2.45427498669724,
2019/03/02 12:51:53.356,-6.15586950252885,-2.44232683686338,
2019/03/02 12:51:53.358,-6.11192339006147,-2.42898433553986,
2019/03/02 12:51:53.360,-5.80264180532795,-2.42071438877357,
2019/03/02 12:51:53.362,-5.63488689679546,-2.42237318623541,
2019/03/02 12:51:53.364,-5.59012340586862,-2.42242126732126,
2019/03/02 12:51:53.366,-5.62577553102678,-2.43516275507165,
2019/03/02 12:51:53.368,-5.72393306779064,-2.43756680936418,
2019/03/02 12:51:53.370,-5.80848365725879,-2.44098056645956,
2019/03/02 12:51:53.372,-6.10206676746211,-2.44590887775924,
2019/03/02 12:51:53.374,-6.16115842197241,-2.43251829534987,
2019/03/02 12:51:53.376,-5.90957414025952,-2.42069034823064,
2019/03/02 12:51:53.378,-5.66438464296476,-2.41746891547866,
2019/03/02 12:51:53.380,-5.58560378379867,-2.42042590225846,
2019/03/02 12:51:53.381,-5.60793744817624,-2.42920070042619,
2019/03/02 12:51:53.383,-5.70388325499097,-2.43804762022268,
2019/03/02 12:51:53.385,-5.7551136519647,-2.44117289080297,
2019/03/02 12:51:53.387,-6.0283103817674,-2.46163139283237,
2019/03/02 12:51:53.389,-6.18399693775141,-2.44013914745718,
2019/03/02 12:51:53.391,-6.01869416459729,-2.41167514463367,
2019/03/02 12:51:53.393,-5.84670812050996,-2.40915088762652,
2019/03/02 12:51:53.395,-5.64207501913011,-2.41956044271315,
2019/03/02 12:51:53.397,-5.58038698598389,-2.43085949788803,
2019/03/02 12:51:53.399,-5.61906821955064,-2.44150945840392,
2019/03/02 12:51:53.401,-5.72809208171671,-2.44021126908596,
2019/03/02 12:51:53.403,-5.78485180356325,-2.44751959413524,
2019/03/02 12:51:53.405,-6.07413165658295,-2.45035637820042,
2019/03/02 12:51:53.407,-6.18522300544059,-2.43732640393492,
2019/03/02 12:51:53.409,-5.94791880622532,-2.41650729376165,
2019/03/02 12:51:53.411,-5.68005907695203,-2.42040186171554,
2019/03/02 12:51:53.413,-5.5998117446675,-2.41919983456928,
2019/03/02 12:51:53.415,-5.60086952855621,-2.43509063344287,
2019/03/02 12:51:53.417,-5.68022736075251,-2.44518766147149,
2019/03/02 12:51:53.419,-5.74056912349492,-2.44326441803746,
2019/03/02 12:51:53.421,-5.98498932341607,-2.44470685061298,
2019/03/02 12:51:53.422,-6.17697709921723,-2.43590801190233,
2019/03/02 12:51:53.424,-6.05194223546293,-2.42915261934033,
2019/03/02 12:51:53.426,-5.72645732479779,-2.41220403657802,
2019/03/02 12:51:53.428,-5.60760088057529,-2.42364733501045,
2019/03/02 12:51:53.430,-5.5835362971071,-2.42549845681569,
2019/03/02 12:51:53.432,-5.59130139247196,-2.43275870077912,
2019/03/02 12:51:53.434,-5.69741634894407,-2.43941793116942,
2019/03/02 12:51:53.436,-5.76237389592813,-2.44403371541107,
2019/03/02 12:51:53.438,-6.04595614027454,-2.45706368967657,
2019/03/02 12:51:53.440,-6.18709816778876,-2.42867180848183,
2019/03/02 12:51:53.442,-5.97849837682625,-2.4165553748475,
2019/03/02 12:51:53.444,-5.68251121233041,-2.42052206443017,
2019/03/02 12:51:53.446,-5.59045997346957,-2.42511380812889,
2019/03/02 12:51:53.448,-5.57538655305543,-2.43184516014796,
2019/03/02 12:51:53.450,-5.6633749401619,-2.43679751199057,
2019/03/02 12:51:53.452,-5.7366505149981,-2.44518766147149,
2019/03/02 12:51:53.454,-5.94760627916729,-2.46098229817338,
2019/03/02 12:51:53.456,-6.18596826227128,-2.45379417583873,
2019/03/02 12:51:53.458,-6.09478248295575,-2.43403284955416,
2019/03/02 12:51:53.460,-5.76232581484228,-2.42446471346991,
2019/03/02 12:51:53.462,-5.63551195091152,-2.42650815961856,
2019/03/02 12:51:53.463,-5.5979125417764,-2.44033147180058,
2019/03/02 12:51:53.465,-5.66827921091865,-2.4393938906265,
2019/03/02 12:51:53.467,-5.71217724230018,-2.44295189097944,
2019/03/02 12:51:53.469,-5.75078635423816,-2.45316912172267,
2019/03/02 12:51:53.471,-6.02379075969745,-2.45131799991743,
2019/03/02 12:51:53.473,-6.19729135798908,-2.44977940517021,
2019/03/02 12:51:53.475,-6.05453861409886,-2.4258831055025,
2019/03/02 12:51:53.477,-5.72378882453308,-2.41787760470839,
2019/03/02 12:51:53.479,-5.60651905614365,-2.42429642966943,
2019/03/02 12:51:53.481,-5.58310356733444,-2.43355203869566,
2019/03/02 12:51:53.483,-5.65707631791548,-2.43773509316465,
2019/03/02 12:51:53.485,-5.73732365020001,-2.43989874202793,
2019/03/02 12:51:53.487,-5.90846827528496,-2.45256810814954,
2019/03/02 12:51:53.489,-6.15596566470055,-2.44994768897069,
2019/03/02 12:51:53.491,-6.12894409445255,-2.43148455200409,
2019/03/02 12:51:53.493,-5.79807410217215,-2.42374349718215,
2019/03/02 12:51:53.495,-5.63346850476287,-2.42174813211935,
2019/03/02 12:51:53.497,-5.58875309492188,-2.42698897047706,
2019/03/02 12:51:53.499,-5.62647270677162,-2.43973045822745,
2019/03/02 12:51:53.501,-5.73600142033912,-2.44326441803746,
2019/03/02 12:51:53.503,-5.8118252927254,-2.4507169863443,
2019/03/02 12:51:53.505,-6.11391875512426,-2.45218345946274,
2019/03/02 12:51:53.506,-6.18863676253598,-2.44501937767101,
2019/03/02 12:51:53.508,-6.06643868284687,-2.42761402459312,
2019/03/02 12:51:53.510,-5.73941517743451,-2.41845457773859,
2019/03/02 12:51:53.512,-5.62022216561105,-2.42537825410107,
2019/03/02 12:51:53.514,-5.5835362971071,-2.42655624070441,
2019/03/02 12:51:53.516,-5.6476764656317,-2.43787933642221,
2019/03/02 12:51:53.518,-5.73234725781448,-2.4395862149699,
2019/03/02 12:51:53.520,-5.85603585116496,-2.45203921620519,
2019/03/02 12:51:53.522,-6.13880071705191,-2.44617332373142,
2019/03/02 12:51:53.524,-6.13706979796129,-2.43629266058914,
2019/03/02 12:51:53.526,-5.83216359204017,-2.41650729376165,
2019/03/02 12:51:53.528,-5.65010456046715,-2.42261359166466,
2019/03/02 12:51:53.530,-5.59005128423984,-2.42540229464399,
2019/03/02 12:51:53.532,-5.61957307095207,-2.42888817336816,
2019/03/02 12:51:53.534,-5.71797101314517,-2.43268657915035,
2019/03/02 12:51:53.536,-5.80321877835816,-2.45033233765749,
2019/03/02 12:51:53.538,-6.10074453760122,-2.45677520316146,
2019/03/02 12:51:53.540,-6.18108803205745,-2.44845717530932,
2019/03/02 12:51:53.542,-5.93998542705998,-2.42660432179026,
2019/03/02 12:51:53.544,-5.76845615328822,-2.42239722677834,
2019/03/02 12:51:53.546,-5.60899523206495,-2.42400794315433,
2019/03/02 12:51:53.547,-5.56197193010314,-2.43071525463048,
2019/03/02 12:51:53.549,-5.61736134100294,-2.44100460700249,
2019/03/02 12:51:53.551,-5.73696304205613,-2.44290380989359,
2019/03/02 12:51:53.553,-5.8485592423152,-2.44521170201441,
2019/03/02 12:51:53.555,-6.1451714609271,-2.45047658091504,
2019/03/02 12:51:53.557,-6.17430859895252,-2.43876883651044,
2019/03/02 12:51:53.559,-5.86591651430724,-2.42064226714479,
2019/03/02 12:51:53.561,-5.64245966781692,-2.42107499691745,
2019/03/02 12:51:53.563,-5.59565273074143,-2.42465703781331,
2019/03/02 12:51:53.565,-5.62546300396876,-2.42660432179026,
2019/03/02 12:51:53.567,-5.70679216068492,-2.43843226890949,
2019/03/02 12:51:53.569,-5.75261343550048,-2.43792741750806,
2019/03/02 12:51:53.571,-6.04547532941604,-2.44518766147149,
2019/03/02 12:51:53.573,-6.16822634159243,-2.43665326873302,
2019/03/02 12:51:53.575,-5.98181597174994,-2.42311844306609,
2019/03/02 12:51:53.577,-5.71095117461099,-2.4103769553157,
2019/03/02 12:51:53.579,-5.61764982751805,-2.41780548307961,
2019/03/02 12:51:53.581,-5.59644606865796,-2.42381561881093,
2019/03/02 12:51:53.583,-5.62825170694809,-2.43427325498342,
2019/03/02 12:51:53.585,-5.71830758074612,-2.43643690384669,
2019/03/02 12:51:53.587,-5.79110234472382,-2.44838505368055,
2019/03/02 12:51:53.588,-6.11831817447959,-2.44956304028388,
2019/03/02 12:51:53.590,-6.16978897688257,-2.43028252485782,
2019/03/02 12:51:53.592,-5.90882888342884,-2.41629092887532,
2019/03/02 12:51:53.594,-5.68116494192659,-2.41876710479662,
2019/03/02 12:51:53.596,-5.59978770412458,-2.42405602424018,
2019/03/02 12:51:53.598,-5.59817698774858,-2.42783038947945,
2019/03/02 12:51:53.600,-5.68099665812612,-2.42843140305258,
2019/03/02 12:51:53.602,-5.73032785220876,-2.4415815800327,
2019/03/02 12:51:53.604,-6.00523146055915,-2.44857737802395,
2019/03/02 12:51:53.606,-6.21625934635711,-2.42934494368374,
2019/03/02 12:51:53.608,-6.09403722612507,-2.41321373938088,
2019/03/02 12:51:53.610,-5.73540040676599,-2.41189150952,
2019/03/02 12:51:53.612,-5.60620652908562,-2.4195123616273,
2019/03/02 12:51:53.614,-5.59661435245844,-2.42513784867182,
2019/03/02 12:51:53.616,-5.62991050440993,-2.42528209192937,
2019/03/02 12:51:53.618,-5.68299202318891,-2.43290294403668,
2019/03/02 12:51:53.620,-5.78129380321032,-2.44232683686338,
2019/03/02 12:51:53.622,-6.17493365306858,-2.43920156628309,
2019/03/02 12:51:53.624,-6.22431292823707,-2.42754190296434,
2019/03/02 12:51:53.626,-6.13476190584047,-2.4054246034731,
2019/03/02 12:51:53.628,-5.85365583741536,-2.38700954759235,
2019/03/02 12:51:53.630,-5.73516000133673,-2.4078046172227,
2019/03/02 12:51:53.631,-5.70960490420718,-2.41552163150171,
2019/03/02 12:51:53.633,-6.10591325433015,-2.41318969883796,
2019/03/02 12:51:53.635,-6.0419173290631,-2.41143473920442,
2019/03/02 12:51:53.637,-6.0508604110313,-2.43607629570281,
2019/03/02 12:51:53.639,-6.20089743942787,-2.43081141680218,
2019/03/02 12:51:53.641,-6.22246180643183,-2.39580838630299,
2019/03/02 12:51:53.643,-5.77670205951159,-2.39116856151842,
2019/03/02 12:51:53.645,-5.57870414797912,-2.40996826608597,
2019/03/02 12:51:53.647,-5.70227253861497,-2.40564096835943,
2019/03/02 12:51:53.649,-5.74492046176439,-2.41970468597071,
2019/03/02 12:51:53.651,-5.94472141401626,-2.41112221214639,
2019/03/02 12:51:53.653,-6.11149066028881,-2.43689367416227,
2019/03/02 12:51:53.655,-6.25794564778952,-2.43886499868214,
2019/03/02 12:51:53.657,-6.45849185687207,-2.4096076579421,
2019/03/02 12:51:53.659,-6.18493451892549,-2.38359579049696,
2019/03/02 12:51:53.661,-5.58531529728357,-2.39075987228869,
2019/03/02 12:51:53.663,-5.56651559271601,-2.38902895319807,
2019/03/02 12:51:53.665,-5.68626153702675,-2.39467848078551,
2019/03/02 12:51:53.667,-5.71989425657919,-2.40525631967262,
2019/03/02 12:51:53.669,-5.8005021970076,-2.42799867327992,
2019/03/02 12:51:53.671,-6.19774812830466,-2.42037782117261,
2019/03/02 12:51:53.672,-6.50085129350638,-2.37448442472829,
2019/03/02 12:51:53.674,-6.45091908585061,-2.34789558425294,
2019/03/02 12:51:53.676,-5.86382498707274,-2.35294409826725,
2019/03/02 12:51:53.678,-5.67654915768494,-2.40710744147787,
2019/03/02 12:51:53.680,-5.61947690878037,-2.42030569954384,
2019/03/02 12:51:53.682,-5.71248976935821,-2.41773336145083,
2019/03/02 12:51:53.684,-5.92118572249242,-2.39994335968614,
2019/03/02 12:51:53.686,-5.97664725502101,-2.41756507765036,
2019/03/02 12:51:53.688,-6.15675900261708,-2.39602475118932,
2019/03/02 12:51:53.690,-6.02857482773958,-2.3849661014437,
2019/03/02 12:51:53.692,-5.84502528250519,-2.36885893768377,
2019/03/02 12:51:53.694,-5.69246399710147,-2.35501158495882,
2019/03/02 12:51:53.696,-5.9096462618883,-2.35515582821637,
2019/03/02 12:51:53.698,-5.56437598439566,-2.36181505860667,
2019/03/02 12:51:53.700,-5.39339964311119,-2.37616726273305,
2019/03/02 12:51:53.702,-5.57817525603476,-2.39669788639123,
2019/03/02 12:51:53.704,-5.78624615505292,-2.40631410356133,
2019/03/02 12:51:53.706,-6.18488643783964,-2.39465444024258,
2019/03/02 12:51:53.708,-6.17317869343504,-2.38775480442303,
2019/03/02 12:51:53.710,-5.645007965367,-2.38984633165753,
2019/03/02 12:51:53.712,-5.45604929797442,-2.39537565653034,
2019/03/02 12:51:53.713,-5.34750624666686,-2.39188977780618,
2019/03/02 12:51:53.715,-5.2554309672631,-2.38205719574974,
2019/03/02 12:51:53.717,-5.11390429106207,-2.39734698105021,
2019/03/02 12:51:53.719,-5.19602678569477,-2.39902981905498,
2019/03/02 12:51:53.721,-5.57750212083286,-2.39878941362573,
2019/03/02 12:51:53.723,-5.62757857174618,-2.38172062814879,
2019/03/02 12:51:53.725,-5.43453301205631,-2.37275350563767,
2019/03/02 12:51:53.727,-5.16821187753024,-2.35013135474499,
2019/03/02 12:51:53.729,-5.1003213843093,-2.35998797734435,
2019/03/02 12:51:53.731,-5.11940957539196,-2.37366704626883,
2019/03/02 12:51:53.733,-5.04764855476005,-2.37210441097868,
2019/03/02 12:51:53.735,-4.92395996140956,-2.37260926238011,
2019/03/02 12:51:53.737,-4.96362685723625,-2.40804502265195,
2019/03/02 12:51:53.739,-5.22691888335374,-2.44247108012093,
2019/03/02 12:51:53.741,-5.23153466759539,-2.39249079137931,
2019/03/02 12:51:53.743,-5.00387072609314,-2.36674336990635,
2019/03/02 12:51:53.745,-4.81847005905351,-2.3779222223666,
2019/03/02 12:51:53.747,-4.67691934230956,-2.38681722324895,
2019/03/02 12:51:53.749,-4.67013990920463,-2.40015972457247,
2019/03/02 12:51:53.751,-4.73800636188265,-2.38275437149458,
2019/03/02 12:51:53.753,-4.66581261147808,-2.40386196818296,
2019/03/02 12:51:53.755,-5.09661914069881,-2.38828369636739,
2019/03/02 12:51:53.756,-5.08455078815033,-2.38996653437216,
2019/03/02 12:51:53.758,-4.7288228744852,-2.38566327718853,
2019/03/02 12:51:53.760,-4.52548796242332,-2.38164850652001,
2019/03/02 12:51:53.762,-4.5012070140688,-2.38775480442303,
2019/03/02 12:51:53.764,-4.41045396452593,-2.387442277365,
2019/03/02 12:51:53.766,-4.40160704472944,-2.38162446597709,
2019/03/02 12:51:53.768,-4.37415274470879,-2.38551903393098,
2019/03/02 12:51:53.770,-4.46461730773655,-2.39573626467422,
2019/03/02 12:51:53.772,-4.68805011368395,-2.39424575101285,
2019/03/02 12:51:53.774,-4.81471973435717,-2.39208210214958,
2019/03/02 12:51:53.776,-4.34366933627955,-2.38047051991668,
2019/03/02 12:51:53.778,-3.9810658273378,-2.38032627665912,
2019/03/02 12:51:53.780,-4.03070954847847,-2.36789731596676,
2019/03/02 12:51:53.782,-4.05458180760326,-2.4147523341281,
2019/03/02 12:51:53.784,-4.09090706796333,-2.41782952362254,
2019/03/02 12:51:53.786,-4.05482221303251,-2.42530613247229,
2019/03/02 12:51:53.788,-4.36609916282882,-2.41852669936737,
2019/03/02 12:51:53.790,-4.60030213200674,-2.39715465670681,
2019/03/02 12:51:53.792,-4.38107642107126,-2.38799520985228,
2019/03/02 12:51:53.794,-3.95204889202701,-2.41304545558041,
2019/03/02 12:51:53.796,-3.70407069175291,-2.40648238736181,
2019/03/02 12:51:53.797,-3.67459698612654,-2.41006442825768,
2019/03/02 12:51:53.799,-3.90709307675676,-2.40006356240077,
2019/03/02 12:51:53.801,-4.07549707994824,-2.38859622342542,
2019/03/02 12:51:53.803,-4.48452287727867,-2.37967718200014,
2019/03/02 12:51:53.805,-4.717307454424,-2.38412468244132,
2019/03/02 12:51:53.807,-4.51616023176832,-2.39693829182048,
2019/03/02 12:51:53.809,-3.92110871328219,-2.3892453180844,
2019/03/02 12:51:53.811,-3.7031090700359,-2.44230279632045,
2019/03/02 12:51:53.813,-3.82323966303345,-2.45360185149533,
2019/03/02 12:51:53.815,-3.83864965104854,-2.41958448325608,
2019/03/02 12:51:53.817,-3.89221198068603,-2.37066197840317,
2019/03/02 12:51:53.819,-3.80845472913441,-2.38756248007963,
2019/03/02 12:51:53.821,-4.08093024264935,-2.39946254882763,
2019/03/02 12:51:53.823,-4.23111151430347,-2.3896299667712,
2019/03/02 12:51:53.825,-4.00931346527499,-2.36845024845404,
2019/03/02 12:51:53.827,-3.7002482454278,-2.37092642437535,
2019/03/02 12:51:53.829,-3.55588478516159,-2.36705589696438,
2019/03/02 12:51:53.831,-3.74229515500408,-2.38063880371715,
2019/03/02 12:51:53.833,-3.79915103902233,-2.38198507412097,
2019/03/02 12:51:53.835,-3.77316321212012,-2.39277927789441,
2019/03/02 12:51:53.837,-3.88148989854136,-2.45050062145797,
2019/03/02 12:51:53.838,-4.11194254302294,-2.45631843284588,
2019/03/02 12:51:53.840,-4.10689402900863,-2.41585819910266,
2019/03/02 12:51:53.842,-4.00582758655082,-2.39121664260427,
2019/03/02 12:51:53.844,-3.7030129078642,-2.37140723523385,
2019/03/02 12:51:53.846,-3.4864316566505,-2.39405342666945,
2019/03/02 12:51:53.848,-3.52025670054635,-2.40703531984909,
2019/03/02 12:51:53.850,-3.62045768345885,-2.41102604997469,
2019/03/02 12:51:53.852,-3.71875946348025,-2.42508976758597,
2019/03/02 12:51:53.854,-4.04907652327337,-2.42773422730774,
2019/03/02 12:51:53.856,-4.23923721781221,-2.42475319998501,
2019/03/02 12:51:53.858,-4.10703827226618,-2.38700954759235,
2019/03/02 12:51:53.860,-3.70871051653749,-2.36950803234276,
2019/03/02 12:51:53.862,-3.60060019500258,-2.41371859078232,
2019/03/02 12:51:53.864,-3.56595777264727,-2.44884182399613,
2019/03/02 12:51:53.866,-3.62733327873547,-2.47223327226241,
2019/03/02 12:51:53.868,-3.69231486626246,-2.46074189274413,
2019/03/02 12:51:53.870,-3.85600692304058,-2.43338375489518,
2019/03/02 12:51:53.872,-4.19577191620333,-2.4262677541893,
2019/03/02 12:51:53.874,-4.18711732075024,-2.39775567027994,
2019/03/02 12:51:53.876,-3.82872090682041,-2.35169399003514,
2019/03/02 12:51:53.878,-3.73565996515671,-2.3440490973849,
2019/03/02 12:51:53.880,-3.71712470656133,-2.35426632812814,
2019/03/02 12:51:53.881,-3.63569938767346,-2.41429556381252,
2019/03/02 12:51:53.883,-3.70496019184115,-2.40165023823383,
2019/03/02 12:51:53.885,-3.74207879011776,-2.41071352291666,
2019/03/02 12:51:53.887,-4.00741426238389,-2.40455914392779,
2019/03/02 12:51:53.889,-4.3986260174067,-2.40102518411778,
2019/03/02 12:51:53.891,-4.35547324285586,-2.41160302300489,
2019/03/02 12:51:53.893,-4.03813807624238,-2.40088094086022,
2019/03/02 12:51:53.895,-4.02337718288626,-2.37859535756851,
2019/03/02 12:51:53.897,-3.82292713597542,-2.36998884320126,
2019/03/02 12:51:53.899,-3.86684920789987,-2.38357174995403,
2019/03/02 12:51:53.901,-3.97366134011682,-2.45636651393173,
2019/03/02 12:51:53.903,-4.15199408753643,-2.49766816667734,
2019/03/02 12:51:53.905,-4.53164234141219,-2.48019069197067,
2019/03/02 12:51:53.907,-4.51406870453382,-2.45740025727752,
2019/03/02 12:51:53.909,-4.12213573322325,-2.43999490419963,
2019/03/02 12:51:53.911,-3.92336852431717,-2.39991931914321,
2019/03/02 12:51:53.913,-3.86533465369558,-2.35356915238331,
2019/03/02 12:51:53.915,-3.9947689368052,-2.35075640886105,
2019/03/02 12:51:53.917,-4.06840511978528,-2.35895423399857,
2019/03/02 12:51:53.919,-4.30106949421598,-2.36527689678791,
2019/03/02 12:51:53.921,-4.54695616725558,-2.37222461369331,
2019/03/02 12:51:53.922,-4.73894394305674,-2.35840130151128,
2019/03/02 12:51:53.924,-4.64345490655759,-2.35950716648585,
2019/03/02 12:51:53.926,-4.24849282683843,-2.37938869548504,
2019/03/02 12:51:53.928,-4.10965869144504,-2.39951062991348,
2019/03/02 12:51:53.930,-3.89968858953578,-2.39636131879028,
2019/03/02 12:51:53.932,-3.93601384989586,-2.40306863026642,
2019/03/02 12:51:53.934,-4.11477932708812,-2.38941360188487,
2019/03/02 12:51:53.936,-4.24575220494495,-2.38960592622828,
2019/03/02 12:51:53.938,-4.59220046904093,-2.39537565653034,
2019/03/02 12:51:53.940,-4.63222797301149,-2.39157725074815,
2019/03/02 12:51:53.942,-4.30457941348307,-2.39208210214958,
2019/03/02 12:51:53.944,-3.97661832689663,-2.40840563079583,
2019/03/02 12:51:53.946,-3.87663370887046,-2.41833437502397,
2019/03/02 12:51:53.948,-3.87100822182594,-2.42352713229582,
2019/03/02 12:51:53.950,-3.97532013757866,-2.4376870120788,
2019/03/02 12:51:53.952,-4.02046827719231,-2.42477724052794,
2019/03/02 12:51:53.954,-4.14581566800463,-2.42266167275051,
2019/03/02 12:51:53.956,-4.44778892768887,-2.43119606548898,
2019/03/02 12:51:53.958,-4.37648467737254,-2.42321460523779,
2019/03/02 12:51:53.960,-3.92848915996025,-2.40619390084671,
2019/03/02 12:51:53.962,-3.67683275661859,-2.40722764419249,
2019/03/02 12:51:53.963,-3.59182539683486,-2.37522968155897,
2019/03/02 12:51:53.965,-3.62709287330622,-2.36676741044928,
2019/03/02 12:51:53.967,-3.7166198551599,-2.37965314145722,
2019/03/02 12:51:53.969,-3.73327995140711,-2.39217826432128,
2019/03/02 12:51:53.971,-4.03179137291011,-2.39830860276722,
2019/03/02 12:51:53.973,-4.17454411680032,-2.3870576286782,
2019/03/02 12:51:53.975,-3.84542908415346,-2.35799261228155,
2019/03/02 12:51:53.977,-3.49434099527291,-2.37443634364243,
2019/03/02 12:51:53.979,-3.42130582586596,-2.40059245434512,
2019/03/02 12:51:53.981,-3.45623673473637,-2.40746804962175,
2019/03/02 12:51:53.983,-3.41729105519744,-2.40391004926881,
2019/03/02 12:51:53.985,-3.42390220450189,-2.41249252309313,
2019/03/02 12:51:53.987,-3.62399164326886,-2.42451279455576,
2019/03/02 12:51:53.989,-3.94486076969235,-2.41044907694448,
2019/03/02 12:51:53.991,-3.93998053947853,-2.40419853578391,
2019/03/02 12:51:53.993,-3.60826912819574,-2.3852545879588,
2019/03/02 12:51:53.995,-3.31192135555601,-2.39770758919409,
2019/03/02 12:51:53.997,-3.18741538374607,-2.4058092521599,
2019/03/02 12:51:53.999,-3.19825766860537,-2.40564096835943,
2019/03/02 12:51:54.001,-3.34971308903453,-2.39854900819647,
2019/03/02 12:51:54.003,-3.36560388790813,-2.41299737449456,
2019/03/02 12:51:54.005,-3.64031517191511,-2.42624371364638,
2019/03/02 12:51:54.006,-3.72113947722985,-2.41626688833239,
2019/03/02 12:51:54.008,-3.49116764360678,-2.40604965758916,
2019/03/02 12:51:54.010,-3.14551271742734,-2.39109643988964,
2019/03/02 12:51:54.012,-3.0553606814576,-2.39112048043257,
2019/03/02 12:51:54.014,-3.00600544683203,-2.39436595372748,
2019/03/02 12:51:54.016,-3.10077326704342,-2.40003952185784,
2019/03/02 12:51:54.018,-3.14635413642972,-2.40564096835943,
2019/03/02 12:51:54.020,-3.44758213928328,-2.41835841556689,
2019/03/02 12:51:54.022,-3.72549081549932,-2.40350136003908,
2019/03/02 12:51:54.024,-3.5614141100344,-2.39422171046993,
2019/03/02 12:51:54.026,-3.14007955472623,-2.39025502088726,
2019/03/02 12:51:54.028,-3.03406076042582,-2.39554394033082,
2019/03/02 12:51:54.030,-2.94967845475814,-2.39511121055816,
2019/03/02 12:51:54.032,-2.96653087534875,-2.40150599497628,
2019/03/02 12:51:54.034,-3.05637038426046,-2.41071352291666,
2019/03/02 12:51:54.036,-3.12207318807521,-2.41306949612333,
2019/03/02 12:51:54.038,-3.42520039381986,-2.42552249735862,
2019/03/02 12:51:54.040,-3.60903842556935,-2.41407919892619,
2019/03/02 12:51:54.042,-3.4068815001108,-2.39797203516627,
2019/03/02 12:51:54.044,-3.0374745175212,-2.39441403481333,
2019/03/02 12:51:54.046,-2.98025802535908,-2.39109643988964,
2019/03/02 12:51:54.047,-2.91472350534481,-2.39039926414481,
2019/03/02 12:51:54.049,-2.9685743214974,-2.40330903569568,
2019/03/02 12:51:54.051,-3.04475880202756,-2.40467934664242,
2019/03/02 12:51:54.053,-3.2445357137365,-2.41840649665274,
2019/03/02 12:51:54.055,-3.53501759390246,-2.41468021249933,
2019/03/02 12:51:54.057,-3.45532319410521,-2.39737102159314,
2019/03/02 12:51:54.059,-3.08863279286617,-2.3876346017084,
2019/03/02 12:51:54.061,-2.92217607365164,-2.38813945310984,
2019/03/02 12:51:54.063,-2.8685656629283,-2.3895338045995,
2019/03/02 12:51:54.065,-2.94073537278994,-2.39826052168137,
2019/03/02 12:51:54.067,-3.00631797389006,-2.40441490067024,
2019/03/02 12:51:54.069,-3.06992925047031,-2.40434277904146,
2019/03/02 12:51:54.071,-3.35363169753135,-2.4193200372839,
2019/03/02 12:51:54.073,-3.59511895121562,-2.40891048219726,
2019/03/02 12:51:54.075,-3.46546830321967,-2.39092815608917,
2019/03/02 12:51:54.077,-3.07524221045679,-2.38119173620443,
2019/03/02 12:51:54.079,-2.93691292646483,-2.37989354688647,
2019/03/02 12:51:54.081,-2.88924052984403,-2.39225038595006,
2019/03/02 12:51:54.083,-2.96268438848071,-2.40547268455895,
2019/03/02 12:51:54.085,-3.1096923084687,-2.40852583351046,
2019/03/02 12:51:54.087,-3.32706689759893,-2.41371859078232,
2019/03/02 12:51:54.088,-3.62168375114804,-2.41754103710743,
2019/03/02 12:51:54.090,-3.56521251581659,-2.40434277904146,
2019/03/02 12:51:54.092,-3.19599785757039,-2.38532670958758,
2019/03/02 12:51:54.094,-3.00590928466033,-2.38842793962494,
2019/03/02 12:51:54.096,-2.96179488839247,-2.39789991353749,
2019/03/02 12:51:54.098,-3.0439414235681,-2.40258781940792,
2019/03/02 12:51:54.100,-3.17315934179139,-2.40566500890235,
2019/03/02 12:51:54.102,-3.25458466067926,-2.41297333395163,
2019/03/02 12:51:54.104,-3.42474362350428,-2.41852669936737,
2019/03/02 12:51:54.106,-3.70178684017501,-2.41936811836975,
2019/03/02 12:51:54.108,-3.60990388511466,-2.40213104909234,
2019/03/02 12:51:54.110,-3.23955932135097,-2.39645748096198,
2019/03/02 12:51:54.112,-3.10642279463086,-2.39741910267899,
2019/03/02 12:51:54.114,-3.06033707384313,-2.40340519786738,
2019/03/02 12:51:54.116,-3.13462235148219,-2.41090584726006,
2019/03/02 12:51:54.118,-3.26497017522297,-2.41982488868533,
2019/03/02 12:51:54.120,-3.39555840439301,-2.4278784705653,
2019/03/02 12:51:54.122,-3.75299319660582,-2.42670048396196,
2019/03/02 12:51:54.124,-3.79424676826558,-2.41621880724654,
2019/03/02 12:51:54.126,-3.46967539823159,-2.39650556204783,
2019/03/02 12:51:54.128,-3.24273267301711,-2.39946254882763,
2019/03/02 12:51:54.130,-3.19280046536133,-2.40436681958439,
2019/03/02 12:51:54.131,-3.22568792808309,-2.40290034646595,
2019/03/02 12:51:54.133,-3.37127745603849,-2.41222807712095,
2019/03/02 12:51:54.135,-3.43633116519425,-2.42222894297786,
2019/03/02 12:51:54.137,-3.78051961825525,-2.43333567380933,
2019/03/02 12:51:54.139,-3.92988351144991,-2.4195123616273,
2019/03/02 12:51:54.141,-3.87329207340384,-2.40867007676801,
2019/03/02 12:51:54.143,-3.51366959178483,-2.39453423752796,
2019/03/02 12:51:54.145,-3.33442330373406,-2.3965776836766,
2019/03/02 12:51:54.147,-3.31331570704568,-2.40162619769091,
2019/03/02 12:51:54.149,-3.36601257713786,-2.41042503640155,
2019/03/02 12:51:54.151,-3.50624106402092,-2.41780548307961,
2019/03/02 12:51:54.153,-3.59992705980067,-2.42857564631013,
2019/03/02 12:51:54.155,-3.96988697487755,-2.43071525463048,
2019/03/02 12:51:54.157,-4.06181801102376,-2.4146561719564,
2019/03/02 12:51:54.159,-3.78328428069166,-2.39607283227517,
2019/03/02 12:51:54.161,-3.50530348284683,-2.39833264331015,
2019/03/02 12:51:54.163,-3.42690727236755,-2.4079969415661,
2019/03/02 12:51:54.165,-3.44772638254083,-2.40729976582127,
2019/03/02 12:51:54.167,-3.56824162422517,-2.41790164525131,
2019/03/02 12:51:54.169,-3.65836961965199,-2.41790164525131,
2019/03/02 12:51:54.171,-3.96931000184735,-2.42968151128469,
2019/03/02 12:51:54.172,-4.18488155025819,-2.41814205068056,
2019/03/02 12:51:54.174,-4.01279934399915,-2.39963083262811,
2019/03/02 12:51:54.176,-3.64685419959079,-2.39345241309632,
2019/03/02 12:51:54.178,-3.57377094909799,-2.40013568402954,
2019/03/02 12:51:54.180,-3.51484757838816,-2.40415045469806,
2019/03/02 12:51:54.182,-3.56586161047557,-2.41516102335783,
2019/03/02 12:51:54.184,-3.69433427186818,-2.41919983456928,
2019/03/02 12:51:54.186,-3.77765879364715,-2.42237318623541,
2019/03/02 12:51:54.188,-4.15209024970813,-2.4306431330017,
2019/03/02 12:51:54.190,-4.29493915577004,-2.41804588850886,
2019/03/02 12:51:54.192,-4.03888333307306,-2.39821244059552,
2019/03/02 12:51:54.194,-3.71669197678868,-2.39525545381571,
2019/03/02 12:51:54.196,-3.63406463075455,-2.40491975207167,
2019/03/02 12:51:54.198,-3.64541176701527,-2.40864603622508,
2019/03/02 12:51:54.200,-3.77801940179102,-2.40828542808121,
2019/03/02 12:51:54.202,-3.87526339792372,-2.41638709104702,
2019/03/02 12:51:54.204,-4.16774064315247,-2.43304718729423,
2019/03/02 12:51:54.206,-4.41302630261894,-2.42867180848183,
2019/03/02 12:51:54.208,-4.25048819190123,-2.41040099585863,
2019/03/02 12:51:54.210,-3.88199474994279,-2.3990538595979,
2019/03/02 12:51:54.212,-3.76434033286655,-2.40321287352398,
2019/03/02 12:51:54.213,-3.75582998067101,-2.40311671135227,
2019/03/02 12:51:54.215,-3.79395828175047,-2.40672279279106,
2019/03/02 12:51:54.217,-3.9153149424372,-2.41369455023939,
2019/03/02 12:51:54.219,-3.98498443583462,-2.42282995655099,
2019/03/02 12:51:54.221,-4.34628975545841,-2.42999403834272,
2019/03/02 12:51:54.223,-4.53705146357037,-2.42347905120997,
2019/03/02 12:51:54.225,-4.32027788801327,-2.40193872474894,
2019/03/02 12:51:54.227,-3.97923874607548,-2.39741910267899,
2019/03/02 12:51:54.229,-3.86526253206681,-2.40391004926881,
2019/03/02 12:51:54.231,-3.84836203039035,-2.41318969883796,
2019/03/02 12:51:54.233,-3.95902064947533,-2.41895942914002,
2019/03/02 12:51:54.235,-4.08506521603249,-2.41910367239757,
2019/03/02 12:51:54.237,-4.31674392820326,-2.43235001154939,
2019/03/02 12:51:54.239,-4.5900849012635,-2.4262677541893,
2019/03/02 12:51:54.241,-4.50801048771665,-2.405136116958,
2019/03/02 12:51:54.243,-4.13555035617554,-2.3960968728181,
2019/03/02 12:51:54.245,-3.98765293609932,-2.40381388709711,
2019/03/02 12:51:54.247,-3.95060645945149,-2.40544864401602,
2019/03/02 12:51:54.249,-4.02260788551266,-2.41419940164082,
2019/03/02 12:51:54.251,-4.167572359352,-2.41720446950648,
2019/03/02 12:51:54.253,-4.18678075314928,-2.42057014551602,
2019/03/02 12:51:54.255,-4.47216603821509,-2.43314334946593,
2019/03/02 12:51:54.256,-4.66453846270305,-2.42484936215671,
2019/03/02 12:51:54.258,-4.48543641790983,-2.40374176546833,
2019/03/02 12:51:54.260,-4.14841204664056,-2.40475146827119,
2019/03/02 12:51:54.262,-4.03032489979167,-2.4050399547863,
2019/03/02 12:51:54.264,-4.01890564190217,-2.40888644165434,
2019/03/02 12:51:54.266,-4.11578902989098,-2.41746891547866,
2019/03/02 12:51:54.268,-4.23245778470728,-2.41542546933001,
2019/03/02 12:51:54.270,-4.42410899290748,-2.42888817336816,
2019/03/02 12:51:54.272,-4.71798058962591,-2.42694088939121,
2019/03/02 12:51:54.274,-4.67314497707029,-2.41059332020203,
2019/03/02 12:51:54.276,-4.30313698090756,-2.39458231861381,
2019/03/02 12:51:54.278,-4.12283290896808,-2.40040013000172,
2019/03/02 12:51:54.280,-4.07556920157701,-2.40253973832207,
2019/03/02 12:51:54.282,-4.1173276246382,-2.42182025374813,
2019/03/02 12:51:54.284,-4.23118363593224,-2.42266167275051,
2019/03/02 12:51:54.286,-4.32739388871915,-2.42679664613366,
2019/03/02 12:51:54.288,-4.6790589506299,-2.42624371364638,
2019/03/02 12:51:54.290,-4.76332105358295,-2.42403198369725,
2019/03/02 12:51:54.292,-4.65206142092483,-2.41193959060585,
2019/03/02 12:51:54.294,-4.27558651871521,-2.40292438700887,
2019/03/02 12:51:54.296,-4.13110285573437,-2.40638622519011,
2019/03/02 12:51:54.297,-4.09655659555077,-2.40501591424337,
2019/03/02 12:51:54.299,-4.1654808321175,-2.4080931037378,
2019/03/02 12:51:54.301,-4.29359288536623,-2.4171323478777,
2019/03/02 12:51:54.303,-4.43713896717298,-2.43535507941505,
2019/03/02 12:51:54.305,-4.77829831182539,-2.4240800647831,
2019/03/02 12:51:54.307,-4.7742114195281,-2.4168438613626,
2019/03/02 12:51:54.309,-4.42083947906965,-2.4007607381456,
2019/03/02 12:51:54.311,-4.19988284904355,-2.40672279279106,
2019/03/02 12:51:54.313,-4.14891689804199,-2.40547268455895,
2019/03/02 12:51:54.315,-4.18675671260636,-2.41850265882444,
2019/03/02 12:51:54.317,-4.31657564440278,-2.42458491618453,
2019/03/02 12:51:54.319,-4.39239951678906,-2.43372032249613,
2019/03/02 12:51:54.321,-4.74541084910363,-2.44049975560106,
2019/03/02 12:51:54.323,-4.86619053676016,-2.43006615997149,
2019/03/02 12:51:54.325,-4.6009271861228,-2.4099923066289,
2019/03/02 12:51:54.327,-4.39254376004661,-2.40650642790474,
2019/03/02 12:51:54.329,-4.23471759574226,-2.41119433377516,
2019/03/02 12:51:54.331,-4.1954593891453,-2.41556971258756,
2019/03/02 12:51:54.333,-4.26842243692348,-2.42242126732126,
2019/03/02 12:51:54.335,-4.3911013274711,-2.42795059219407,
2019/03/02 12:51:54.337,-4.51118383938279,-2.43398476846831,
2019/03/02 12:51:54.338,-4.85135752177527,-2.43655710656132,
2019/03/02 12:51:54.340,-4.90256387820608,-2.42533017301522,
2019/03/02 12:51:54.342,-4.58607013059498,-2.40931917142699,
2019/03/02 12:51:54.344,-4.3159265497438,-2.40643430627596,
2019/03/02 12:51:54.346,-4.25029586755783,-2.40775653613685,
2019/03/02 12:51:54.348,-4.28010614078516,-2.42258955112174,
2019/03/02 12:51:54.350,-4.39908278772228,-2.42162792940473,
2019/03/02 12:51:54.352,-4.47271897070237,-2.43227788992062,
2019/03/02 12:51:54.354,-4.81724399136432,-2.43956217442697,
2019/03/02 12:51:54.356,-4.98754719744689,-2.42987383562809,
2019/03/02 12:51:54.358,-4.76702329719344,-2.41381475295402,
2019/03/02 12:51:54.360,-4.4301191286388,-2.41278100960823,
2019/03/02 12:51:54.362,-4.31508513074141,-2.41984892922826,
2019/03/02 12:51:54.364,-4.30448325131137,-2.42355117283875,
2019/03/02 12:51:54.366,-4.34753986369052,-2.42655624070441,
2019/03/02 12:51:54.368,-4.47536343042415,-2.43198940340552,
2019/03/02 12:51:54.370,-4.57354500773092,-2.44117289080297,
2019/03/02 12:51:54.372,-4.93465800301131,-2.4463416075319,
2019/03/02 12:51:54.374,-5.02170880894369,-2.43934580954065,
2019/03/02 12:51:54.376,-4.72995278000269,-2.41927195619805,
2019/03/02 12:51:54.378,-4.44076908915469,-2.41477637467103,
2019/03/02 12:51:54.380,-4.37725397474615,-2.42434451075528,
2019/03/02 12:51:54.381,-4.38511523228271,-2.42766210567897,
2019/03/02 12:51:54.383,-4.49341787816102,-2.43196536286259,
2019/03/02 12:51:54.385,-4.5758048187659,-2.44134117460344,
2019/03/02 12:51:54.387,-4.87527786198591,-2.44617332373142,
2019/03/02 12:51:54.389,-5.07765115233077,-2.44184602600487,
2019/03/02 12:51:54.391,-4.90778067602086,-2.41766123982206,
2019/03/02 12:51:54.393,-4.54457615350598,-2.41261272580775,
2019/03/02 12:51:54.395,-4.43016720972465,-2.42073842931649,
2019/03/02 12:51:54.397,-4.40773738317538,-2.42290207817977,
2019/03/02 12:51:54.399,-4.49666335145593,-2.42530613247229,
2019/03/02 12:51:54.401,-4.60967794374759,-2.42900837608278,
2019/03/02 12:51:54.403,-4.63205968921101,-2.43033060594367,
2019/03/02 12:51:54.405,-4.96821860093498,-2.44324037749454,
2019/03/02 12:51:54.407,-5.09741247861534,-2.43477810638485,
2019/03/02 12:51:54.409,-4.8590024144255,-2.41035291477278,
2019/03/02 12:51:54.411,-4.54686000508388,-2.41004038771475,
2019/03/02 12:51:54.413,-4.44108161621272,-2.42088267257404,
2019/03/02 12:51:54.415,-4.43745149423101,-2.42648411907563,
2019/03/02 12:51:54.417,-4.55746188451392,-2.42477724052794,
2019/03/02 12:51:54.419,-4.63770921679845,-2.43148455200409,
2019/03/02 12:51:54.421,-4.9017224592037,-2.43884095813922,
2019/03/02 12:51:54.422,-5.12301565683075,-2.43727832284907,
2019/03/02 12:51:54.424,-5.00762105078948,-2.41641113158994,
2019/03/02 12:51:54.426,-4.63343000015775,-2.41083372563128,
2019/03/02 12:51:54.428,-4.5125301097866,-2.41511294227198,
2019/03/02 12:51:54.430,-4.47420948436373,-2.41737275330696,
2019/03/02 12:51:54.432,-4.55488954642092,-2.42619563256053,
2019/03/02 12:51:54.434,-4.67598176113547,-2.43160475471871,
2019/03/02 12:51:54.436,-4.80717100387863,-2.43915348519724,
2019/03/02 12:51:54.438,-5.12529950840865,-2.44090844483079,
2019/03/02 12:51:54.440,-5.1736931213172,-2.43528295778628,
2019/03/02 12:51:54.442,-4.98331606189204,-2.41338202318136,
2019/03/02 12:51:54.444,-4.62946331057509,-2.40963169848502,
2019/03/02 12:51:54.446,-4.53296457127308,-2.41383879349694,
2019/03/02 12:51:54.448,-4.50512562256562,-2.41891134805417,
2019/03/02 12:51:54.450,-4.60294659172852,-2.42831120033795,
2019/03/02 12:51:54.452,-4.70201766912353,-2.43528295778628,
2019/03/02 12:51:54.454,-4.90787683819256,-2.44379330998182,
2019/03/02 12:51:54.456,-5.18585763603739,-2.43665326873302,
2019/03/02 12:51:54.458,-5.10854324998974,-2.42008933465751,
2019/03/02 12:51:54.460,-4.76211902643669,-2.40811714428073,
2019/03/02 12:51:54.462,-4.58782509022853,-2.41263676635068,
2019/03/02 12:51:54.463,-4.54111431532474,-2.41588223964559,
2019/03/02 12:51:54.465,-4.61306766030006,-2.42518592975767,
2019/03/02 12:51:54.467,-4.73055379357582,-2.42395986206848,
2019/03/02 12:51:54.469,-4.83904876379753,-2.43451366041267,
2019/03/02 12:51:54.471,-5.1623700255994,-2.44061995831569,
2019/03/02 12:51:54.473,-5.1983346778156,-2.42982575454224,
2019/03/02 12:51:54.475,-4.88249002486348,-2.40967977957087,
2019/03/02 12:51:54.477,-4.70043099329046,-2.40648238736181,
2019/03/02 12:51:54.479,-4.58328142761565,-2.41816609122349,
2019/03/02 12:51:54.481,-4.56840033154492,-2.41785356416546,
2019/03/02 12:51:54.483,-4.64081044683581,-2.42804675436577,
2019/03/02 12:51:54.485,-4.75911395857103,-2.43004211942857,
2019/03/02 12:51:54.487,-4.91718052830464,-2.44016318800011,
2019/03/02 12:51:54.489,-5.22855364027265,-2.44242299903508,
2019/03/02 12:51:54.491,-5.20227732685534,-2.42254147003589,
2019/03/02 12:51:54.493,-4.84674173753362,-2.40816522536658,
2019/03/02 12:51:54.495,-4.64321450112834,-2.41388687458279,
2019/03/02 12:51:54.497,-4.59022914452106,-2.41323777992381,
2019/03/02 12:51:54.499,-4.63530516250592,-2.42456087564161,
2019/03/02 12:51:54.501,-4.75031511986039,-2.42953726802714,
2019/03/02 12:51:54.503,-4.83450510118466,-2.43160475471871,
2019/03/02 12:51:54.505,-5.17032744530767,-2.44266340446433,
2019/03/02 12:51:54.506,-5.26644153592287,-2.42932090314081,
2019/03/02 12:51:54.508,-4.9883164948205,-2.40972786065672,
2019/03/02 12:51:54.510,-4.70769123725389,-2.41347818535306,
2019/03/02 12:51:54.512,-4.61551979567843,-2.41364646915354,
2019/03/02 12:51:54.514,-4.61484666047653,-2.41749295602158,
2019/03/02 12:51:54.516,-4.6904782085194,-2.42463299727039,
2019/03/02 12:51:54.518,-4.81270032875144,-2.42980171399932,
2019/03/02 12:51:54.520,-4.92804685370686,-2.43509063344287,
2019/03/02 12:51:54.522,-5.25237781831159,-2.43893712031092,
2019/03/02 12:51:54.524,-5.27406238803018,-2.42456087564161,
2019/03/02 12:51:54.526,-4.94374532823706,-2.40679491441984,
2019/03/02 12:51:54.528,-4.7313952125782,-2.41203575277755,
2019/03/02 12:51:54.530,-4.66247097601147,-2.4122761582068,
2019/03/02 12:51:54.532,-4.67843389651385,-2.42910453825448,
2019/03/02 12:51:54.534,-4.79101575903286,-2.42802271382285,
2019/03/02 12:51:54.536,-4.85510784647161,-2.43667730927594,
2019/03/02 12:51:54.538,-5.18095336528063,-2.44338462075209,
2019/03/02 12:51:54.540,-5.3171911220381,-2.43328759272348,
2019/03/02 12:51:54.542,-5.09255628894444,-2.41407919892619,
2019/03/02 12:51:54.544,-4.77050917591761,-2.41040099585863,
2019/03/02 12:51:54.546,-4.67480377453213,-2.41508890172906,
2019/03/02 12:51:54.547,-4.67477973398921,-2.42177217266228,
2019/03/02 12:51:54.549,-4.80786817962347,-2.42718129482046,
2019/03/02 12:51:54.551,-4.87171986163297,-2.42749382187849,
2019/03/02 12:51:54.553,-4.9362687193873,-2.4376870120788,
2019/03/02 12:51:54.555,-5.25264226428377,-2.4418700665478,
2019/03/02 12:51:54.557,-5.31707091932347,-2.42905645716863,
2019/03/02 12:51:54.559,-5.05053341991108,-2.41004038771475,
2019/03/02 12:51:54.561,-4.79245819160837,-2.40816522536658,
2019/03/02 12:51:54.563,-4.70925387254404,-2.41768528036498,
2019/03/02 12:51:54.565,-4.72819782036914,-2.4304508086583,
2019/03/02 12:51:54.567,-4.84467425084205,-2.42989787617102,
2019/03/02 12:51:54.569,-4.91282919003517,-2.42905645716863,
2019/03/02 12:51:54.571,-5.22756797801272,-2.444057755954,
2019/03/02 12:51:54.573,-5.40193403584966,-2.42980171399932,
2019/03/02 12:51:54.575,-5.21220607108348,-2.41785356416546,
2019/03/02 12:51:54.577,-4.85741573859244,-2.41785356416546,
2019/03/02 12:51:54.579,-4.75401736347088,-2.41506486118613,
2019/03/02 12:51:54.581,-4.73492917238822,-2.42061822660187,
2019/03/02 12:51:54.583,-4.82717273559245,-2.43054697083,
2019/03/02 12:51:54.585,-4.92900847542387,-2.42734957862094,
2019/03/02 12:51:54.587,-5.13628603652549,-2.43747064719248,
2019/03/02 12:51:54.588,-5.31421009471537,-2.4400670258284,
2019/03/02 12:51:54.590,-5.42450810565648,-2.42540229464399,
2019/03/02 12:51:54.592,-5.17412585108986,-2.41357434752476,
2019/03/02 12:51:54.594,-4.86453173929831,-2.41282909069408,
2019/03/02 12:51:54.596,-4.76969179745815,-2.41480041521395,
2019/03/02 12:51:54.598,-4.77719244685083,-2.42571482170202,
2019/03/02 12:51:54.600,-4.88270638974981,-2.42802271382285,
2019/03/02 12:51:54.602,-4.96042946502719,-2.43191728177674,
2019/03/02 12:51:54.604,-5.23564560043561,-2.44696666164795,
2019/03/02 12:51:54.606,-5.44568782397363,-2.43343183598103,
2019/03/02 12:51:54.608,-5.28257274022572,-2.4169400235343,
2019/03/02 12:51:54.610,-4.93177313786028,-2.41068948237373,
2019/03/02 12:51:54.612,-4.8133253828675,-2.41520910444368,
2019/03/02 12:51:54.614,-4.77769729825226,-2.42083459148819,
2019/03/02 12:51:54.616,-4.85813695488019,-2.42960938965591,
2019/03/02 12:51:54.618,-4.97264206083322,-2.42951322748421,
2019/03/02 12:51:54.620,-5.12294353520197,-2.4444424046408,
2019/03/02 12:51:54.622,-5.42251274059368,-2.44189410709072,
2019/03/02 12:51:54.624,-5.40801629320975,-2.42915261934033,
2019/03/02 12:51:54.626,-5.04923523059311,-2.41064140128788,
2019/03/02 12:51:54.628,-4.92114721788731,-2.4145600097847,
2019/03/02 12:51:54.630,-4.81813349145255,-2.41886326696832,
2019/03/02 12:51:54.631,-4.8041899765559,-2.42319056469487,
2019/03/02 12:51:54.633,-4.89217836366237,-2.43018636268612,
2019/03/02 12:51:54.635,-4.98862902187852,-2.4328308224079,
2019/03/02 12:51:54.637,-5.21201374674007,-2.44285572880773,
2019/03/02 12:51:54.639,-5.46811765052291,-2.44201430980535,
2019/03/02 12:51:54.641,-5.37344599248322,-2.42345501066705,
2019/03/02 12:51:54.643,-5.02692560675847,-2.41335798263844,
2019/03/02 12:51:54.645,-4.86395476626811,-2.41686790190552,
2019/03/02 12:51:54.647,-4.82558605975939,-2.42218086189201,
2019/03/02 12:51:54.649,-4.88934157959718,-2.43107586277436,
2019/03/02 12:51:54.651,-4.99264379254704,-2.43400880901124,
2019/03/02 12:51:54.653,-5.1211645350255,-2.44134117460344,
2019/03/02 12:51:54.655,-5.44157689113341,-2.44061995831569,
2019/03/02 12:51:54.657,-5.47280555639333,-2.42920070042619,
2019/03/02 12:51:54.659,-5.14655134835458,-2.41263676635068,
2019/03/02 12:51:54.661,-4.91794982567825,-2.41552163150171,
2019/03/02 12:51:54.663,-4.84705426459165,-2.42138752397547,
2019/03/02 12:51:54.665,-4.84832841336669,-2.42453683509868,
2019/03/02 12:51:54.667,-4.94254330109079,-2.42585906495957,
2019/03/02 12:51:54.669,-5.04240771640234,-2.43052293028707,
2019/03/02 12:51:54.671,-5.22307239648569,-2.44617332373142,
2019/03/02 12:51:54.672,-5.50622191105945,-2.44328845858039,
2019/03/02 12:51:54.674,-5.45705900077728,-2.42658028124733,
2019/03/02 12:51:54.676,-5.08327663937529,-2.41431960435545,
2019/03/02 12:51:54.678,-4.91073766280067,-2.41381475295402,
2019/03/02 12:51:54.680,-4.88196113291913,-2.41706022624893,
2019/03/02 12:51:54.682,-4.94485119321162,-2.42542633518692,
2019/03/02 12:51:54.684,-5.05680800161457,-2.43347991706688,
2019/03/02 12:51:54.686,-5.12041927819482,-2.44028339071473,
2019/03/02 12:51:54.688,-5.43705726906347,-2.4467262562187,
2019/03/02 12:51:54.690,-5.51905956098154,-2.43285486295083,
2019/03/02 12:51:54.692,-5.21516305786328,-2.41239636092143,
2019/03/02 12:51:54.694,-4.95557327535629,-2.41605052344607,
2019/03/02 12:51:54.696,-4.8812639571743,-2.41910367239757,
2019/03/02 12:51:54.698,-4.90003962119893,-2.42795059219407,
2019/03/02 12:51:54.700,-5.01379947032127,-2.43364820086736,
2019/03/02 12:51:54.702,-5.06161611019962,-2.43287890349375,
2019/03/02 12:51:54.704,-5.19489688017729,-2.44420199921155,
2019/03/02 12:51:54.706,-5.50528432988536,-2.44667817513285,
2019/03/02 12:51:54.708,-5.49997136989888,-2.42696492993414,
2019/03/02 12:51:54.710,-5.15684070072659,-2.41129049594686,
2019/03/02 12:51:54.712,-4.94412997692386,-2.41489657738565,
2019/03/02 12:51:54.713,-4.89011087697079,-2.41804588850886,
2019/03/02 12:51:54.715,-4.93602831395805,-2.4257869433308,
2019/03/02 12:51:54.717,-5.05238454171632,-2.43400880901124,
2019/03/02 12:51:54.719,-5.11337539911772,-2.43773509316465,
2019/03/02 12:51:54.721,-5.45297210847999,-2.44569251287292,
2019/03/02 12:51:54.723,-5.57767040463333,-2.43504255235702,
2019/03/02 12:51:54.725,-5.31865759515654,-2.41280505015116,
2019/03/02 12:51:54.727,-4.99581714421318,-2.40996826608597,
2019/03/02 12:51:54.729,-4.8956402018436,-2.42117115908915,
2019/03/02 12:51:54.731,-4.89927032382532,-2.42898433553986,
2019/03/02 12:51:54.733,-5.01738151121714,-2.43295102512253,
2019/03/02 12:51:54.735,-5.08219481494365,-2.43256637643572,
2019/03/02 12:51:54.737,-5.35450204465811,-2.44446644518373,
2019/03/02 12:51:54.739,-5.50052430238616,-2.44340866129502,
2019/03/02 12:51:54.741,-5.53826795477883,-2.42633987581808,
2019/03/02 12:51:54.743,-5.22042793676392,-2.4125646447219,
2019/03/02 12:51:54.745,-4.96730506030382,-2.41544950987293,
2019/03/02 12:51:54.747,-4.89996749957015,-2.41987296977118,
2019/03/02 12:51:54.749,-4.9225656099199,-2.42463299727039,
2019/03/02 12:51:54.751,-5.03961901342301,-2.4326384980645,
2019/03/02 12:51:54.753,-5.12414556234823,-2.44326441803746,
2019/03/02 12:51:54.755,-5.44160093167634,-2.44751959413524,
2019/03/02 12:51:54.756,-5.59877800132171,-2.43727832284907,
2019/03/02 12:51:54.758,-5.38000906070181,-2.41617072616069,
2019/03/02 12:51:54.760,-5.03625333741347,-2.41516102335783,
2019/03/02 12:51:54.762,-4.94372128769413,-2.41929599674098,
2019/03/02 12:51:54.764,-4.94828899084993,-2.42061822660187,
2019/03/02 12:51:54.766,-5.0276227825033,-2.43011424105735,
2019/03/02 12:51:54.768,-5.11041841233791,-2.43857651216704,
2019/03/02 12:51:54.770,-5.33933246207227,-2.44828889150884,
2019/03/02 12:51:54.772,-5.58836844623508,-2.43653306601839,
2019/03/02 12:51:54.774,-5.49518730185675,-2.41804588850886,
2019/03/02 12:51:54.776,-5.31274362159693,-2.41107413106054,
2019/03/02 12:51:54.778,-5.00084161768456,-2.41412728001204,
2019/03/02 12:51:54.780,-4.9252341101846,-2.41917579402635,
2019/03/02 12:51:54.782,-4.96273735714802,-2.42386369989678,
2019/03/02 12:51:54.784,-5.04981220362332,-2.42742170024972,
2019/03/02 12:51:54.786,-5.10058583028148,-2.43299910620838,
2019/03/02 12:51:54.788,-5.4085451851541,-2.44364906672427,
2019/03/02 12:51:54.790,-5.59656627137259,-2.43660518764717,
2019/03/02 12:51:54.792,-5.42924409261275,-2.41924791565513,
2019/03/02 12:51:54.794,-5.07507881423777,-2.41167514463367,
2019/03/02 12:51:54.796,-4.95148638305899,-2.42295015926562,
2019/03/02 12:51:54.797,-4.92155590711704,-2.42069034823064,
2019/03/02 12:51:54.799,-5.01468897040951,-2.42670048396196,
2019/03/02 12:51:54.801,-5.13491572557875,-2.43167687634749,
2019/03/02 12:51:54.803,-5.30620459392126,-2.45030829711457,
2019/03/02 12:51:54.805,-5.58464216208166,-2.44124501243174,
2019/03/02 12:51:54.807,-5.52598323734402,-2.42028165900091,
2019/03/02 12:51:54.809,-5.17162563462563,-2.407708455051,
2019/03/02 12:51:54.811,-4.97165639857329,-2.41011250934353,
2019/03/02 12:51:54.813,-4.9436010849795,-2.41677173973382,
2019/03/02 12:51:54.815,-4.94485119321162,-2.42261359166466,
2019/03/02 12:51:54.817,-5.03286362086101,-2.42710917319169,
2019/03/02 12:51:54.819,-5.11236569631486,-2.43174899797626,
2019/03/02 12:51:54.821,-5.36642615394904,-2.44266340446433,
2019/03/02 12:51:54.823,-5.61219262427401,-2.43504255235702,
2019/03/02 12:51:54.825,-5.497038423662,-2.42126732126085,
2019/03/02 12:51:54.827,-5.10895193921947,-2.41059332020203,
2019/03/02 12:51:54.829,-4.97213720943179,-2.42167601049058,
2019/03/02 12:51:54.831,-4.92244540720527,-2.42465703781331,
2019/03/02 12:51:54.833,-5.00860671304942,-2.42489744324256,
2019/03/02 12:51:54.835,-5.12388111637606,-2.42655624070441,
2019/03/02 12:51:54.837,-5.26709063058185,-2.44028339071473,
2019/03/02 12:51:54.838,-5.58204578344573,-2.43891307976799,
2019/03/02 12:51:54.840,-5.59377756839326,-2.4235030917529,
2019/03/02 12:51:54.842,-5.22251946399841,-2.41285313123701,
2019/03/02 12:51:54.844,-4.9999280770534,-2.41816609122349,
2019/03/02 12:51:54.846,-4.93698993567506,-2.42499360541426,
2019/03/02 12:51:54.848,-5.00084161768456,-2.4281669570804,
2019/03/02 12:51:54.850,-5.07846853079023,-2.43066717354463,
2019/03/02 12:51:54.852,-5.16648095843962,-2.43158071417579,
2019/03/02 12:51:54.854,-5.37457589800071,-2.44360098563842,
2019/03/02 12:51:54.856,-5.62647270677162,-2.43588397135941,
2019/03/02 12:51:54.858,-5.54016715766992,-2.4166515370192,
2019/03/02 12:51:54.860,-5.18107356799526,-2.40972786065672,
2019/03/02 12:51:54.862,-5.04764855476005,-2.41612264507484,
2019/03/02 12:51:54.864,-4.98016675076883,-2.41780548307961,
2019/03/02 12:51:54.866,-5.06683290801441,-2.42903241662571,
2019/03/02 12:51:54.868,-5.12859306278941,-2.42987383562809,
2019/03/02 12:51:54.870,-5.27754826675434,-2.43622053896036,
2019/03/02 12:51:54.872,-5.60683158320168,-2.43932176899772,
2019/03/02 12:51:54.874,-5.63274728847511,-2.42751786242142,
2019/03/02 12:51:54.876,-5.28649134872254,-2.41004038771475,
2019/03/02 12:51:54.878,-5.03281553977516,-2.41405515838327,
2019/03/02 12:51:54.880,-4.99507188738249,-2.42218086189201,
2019/03/02 12:51:54.881,-5.00045696899775,-2.42809483545162,
2019/03/02 12:51:54.883,-5.16792339101514,-2.43052293028707,
2019/03/02 12:51:54.885,-5.19093019059462,-2.43636478221791,
2019/03/02 12:51:54.887,-5.30882501310011,-2.44218259360583,
2019/03/02 12:51:54.889,-5.57923303992347,-2.43884095813922,
2019/03/02 12:51:54.891,-5.59103694649978,-2.42232510514956,
2019/03/02 12:51:54.893,-5.27670684775196,-2.40643430627596,
2019/03/02 12:51:54.895,-5.05608678532681,-2.40451106284194,
2019/03/02 12:51:54.897,-4.97932533176645,-2.40573713053113,
2019/03/02 12:51:54.899,-5.04199902717261,-2.4145600097847,
2019/03/02 12:51:54.901,-5.24305008765659,-2.42285399709392,
2019/03/02 12:51:54.903,-5.23689570866772,-2.43787933642221,
2019/03/02 12:51:54.905,-5.59312847373428,-2.44898606725368,
2019/03/02 12:51:54.907,-5.67602026574059,-2.43232597100647,
2019/03/02 12:51:54.909,-5.41078095564615,-2.41251656363605,
2019/03/02 12:51:54.911,-5.13150196848337,-2.41177130680537,
2019/03/02 12:51:54.913,-4.9610064380574,-2.42042590225846,
2019/03/02 12:51:54.915,-4.943120274121,-2.42422430804066,
2019/03/02 12:51:54.917,-5.06637613769883,-2.43078737625925,
2019/03/02 12:51:54.919,-5.14289718582994,-2.43167687634749,
2019/03/02 12:51:54.921,-5.45321251390924,-2.44607716155972,
2019/03/02 12:51:54.922,-5.65402316896397,-2.43403284955416,
2019/03/02 12:51:54.924,-5.48463350351256,-2.41424748272667,
2019/03/02 12:51:54.926,-5.30829612115575,-2.40407833306928,
2019/03/02 12:51:54.928,-5.11921725104856,-2.40592945487453,
2019/03/02 12:51:54.930,-5.06488562403746,-2.4079969415661,
2019/03/02 12:51:54.932,-4.9845180890383,-2.4172285100494,
2019/03/02 12:51:54.934,-5.09981653290787,-2.43011424105735,
2019/03/02 12:51:54.936,-5.24389150665897,-2.43715812013445,
2019/03/02 12:51:54.938,-5.5272093050332,-2.43965833659867,
2019/03/02 12:51:54.940,-5.6541433716786,-2.41905559131172,
2019/03/02 12:51:54.942,-5.38234099336557,-2.41042503640155,
2019/03/02 12:51:54.944,-4.9930765223197,-2.41242040146435,
2019/03/02 12:51:54.946,-4.94182208480304,-2.41299737449456,
2019/03/02 12:51:54.948,-4.95603004567187,-2.41359838806769,
2019/03/02 12:51:54.950,-5.06464521860821,-2.42338288903827,
2019/03/02 12:51:54.952,-5.22675059955326,-2.42422430804066,
2019/03/02 12:51:54.954,-5.5356715761429,-2.42903241662571,
2019/03/02 12:51:54.956,-5.6955411865959,-2.42434451075528,
2019/03/02 12:51:54.958,-5.45852547389573,-2.41004038771475,
2019/03/02 12:51:54.960,-5.05514920415273,-2.4104731174874,
2019/03/02 12:51:54.962,-5.07620871975526,-2.41855073991029,
2019/03/02 12:51:54.963,-5.01089056462732,-2.41367050969646,
2019/03/02 12:51:54.965,-4.99951938782367,-2.41681982081967,
2019/03/02 12:51:54.967,-5.09133022125525,-2.42013741574336,
2019/03/02 12:51:54.969,-5.14962853784901,-2.42828715979503,
2019/03/02 12:51:54.971,-5.45794850086552,-2.43823994456608,
2019/03/02 12:51:54.973,-5.56483275471124,-2.42444067292698,
2019/03/02 12:51:54.975,-5.37094577601899,-2.41395899621157,
2019/03/02 12:51:54.977,-4.96939658753831,-2.40210700854941,
2019/03/02 12:51:54.979,-4.9088625004525,-2.41739679384988,
2019/03/02 12:51:54.981,-4.88597590358765,-2.41996913194288,
2019/03/02 12:51:54.983,-4.96211230303196,-2.42886413282523,
2019/03/02 12:51:54.985,-5.02500236332445,-2.42153176723303,
2019/03/02 12:51:54.987,-5.25531076454847,-2.43412901172586,
2019/03/02 12:51:54.989,-5.58002637784001,-2.42706109210584,
2019/03/02 12:51:54.991,-5.52954123769695,-2.4119876716917,
2019/03/02 12:51:54.993,-5.01894414650728,-2.4075161307076,
2019/03/02 12:51:54.995,-4.72735640136676,-2.40871815785386,
2019/03/02 12:51:54.997,-4.80156955737705,-2.40217913017819,
2019/03/02 12:51:54.999,-4.863666279753,-2.41222807712095,
2019/03/02 12:51:55.001,-4.92886423216632,-2.42273379437929,
2019/03/02 12:51:55.003,-4.91826235273628,-2.43340779543811,
2019/03/02 12:51:55.005,-5.12996337373615,-2.4438654316106,
2019/03/02 12:51:55.006,-5.34945353064381,-2.43605225515989,
2019/03/02 12:51:55.008,-5.19780578587124,-2.41434364489837,
2019/03/02 12:51:55.010,-4.84284716957973,-2.4146561719564,
2019/03/02 12:51:55.012,-4.7512767415774,-2.41330990155259,
2019/03/02 12:51:55.014,-4.75053148474671,-2.41321373938088,
2019/03/02 12:51:55.016,-4.84426556161232,-2.4147523341281,
2019/03/02 12:51:55.018,-4.99759614438965,-2.42232510514956,
2019/03/02 12:51:55.020,-4.99218702223146,-2.43218172774892,
2019/03/02 12:51:55.022,-5.34587148974794,-2.43107586277436,
2019/03/02 12:51:55.024,-5.24869961524403,-2.41939215891268,
2019/03/02 12:51:55.026,-4.77142271654877,-2.40826138753828,
2019/03/02 12:51:55.028,-4.6512680830083,-2.40487167098582,
2019/03/02 12:51:55.030,-4.60960582211882,-2.40893452274019,
2019/03/02 12:51:55.032,-4.70004634460366,-2.41191555006292,
2019/03/02 12:51:55.034,-4.76584531059011,-2.41172322571952,
2019/03/02 12:51:55.036,-4.81709974810677,-2.42691684884829,
2019/03/02 12:51:55.038,-5.04685521684351,-2.42734957862094,
2019/03/02 12:51:55.040,-5.33661588072171,-2.4233107674095,
2019/03/02 12:51:55.042,-5.11258206120118,-2.40585733324575,
2019/03/02 12:51:55.044,-4.68874728942879,-2.40340519786738,
2019/03/02 12:51:55.046,-4.59736918576986,-2.40064053543097,
2019/03/02 12:51:55.047,-4.53570519316656,-2.40816522536658,
2019/03/02 12:51:55.049,-4.5552501545648,-2.39833264331015,
2019/03/02 12:51:55.051,-4.70218595292401,-2.41023271205815,
2019/03/02 12:51:55.053,-4.90273216200656,-2.42326268632365,
2019/03/02 12:51:55.055,-5.20145994839588,-2.41879114533955,
2019/03/02 12:51:55.057,-5.21287920628538,-2.41330990155259,
2019/03/02 12:51:55.059,-4.80298794940964,-2.40467934664242,
2019/03/02 12:51:55.061,-4.56202958766972,-2.40261185995084,
2019/03/02 12:51:55.063,-4.40107815278508,-2.39436595372748,
2019/03/02 12:51:55.065,-4.51930954289153,-2.3987653730828,
2019/03/02 12:51:55.067,-4.69968573645978,-2.4192238751122,
2019/03/02 12:51:55.069,-4.70596031816327,-2.42364733501045,
2019/03/02 12:51:55.071,-4.99579310367025,-2.42242126732126,
2019/03/02 12:51:55.073,-5.16977451282039,-2.40948745522747,
2019/03/02 12:51:55.075,-5.15715322778462,-2.39729889996436,
2019/03/02 12:51:55.077,-4.79902125982697,-2.38693742596357,
2019/03/02 12:51:55.079,-4.70644112902178,-2.39631323770442,
2019/03/02 12:51:55.081,-4.66016308389065,-2.40470338718534,
2019/03/02 12:51:55.083,-4.49007624269441,-2.40941533359869,
2019/03/02 12:51:55.085,-4.56828012883029,-2.42268571329344,
2019/03/02 12:51:55.087,-4.710552061862,-2.42343097012412,
2019/03/02 12:51:55.088,-4.95408276169492,-2.4258831055025,
2019/03/02 12:51:55.090,-4.96793011441987,-2.4188392264254,
2019/03/02 12:51:55.092,-4.64968140717523,-2.40609773867501,
2019/03/02 12:51:55.094,-4.39331305742022,-2.39782779190872,
2019/03/02 12:51:55.096,-4.45007277926677,-2.38292265529505,
2019/03/02 12:51:55.098,-4.60277830792804,-2.37890788462653,
2019/03/02 12:51:55.100,-4.53774863931521,-2.39080795337454,
2019/03/02 12:51:55.102,-4.68454019441686,-2.40696319822032,
2019/03/02 12:51:55.104,-4.94771201781972,-2.40347731949615,
2019/03/02 12:51:55.106,-4.9889896300224,-2.40874219839679,
2019/03/02 12:51:55.108,-4.7677445134812,-2.38280245258043,
2019/03/02 12:51:55.110,-4.48618167474051,-2.39313988603829,
2019/03/02 12:51:55.112,-4.53923915297657,-2.3986692109111,
2019/03/02 12:51:55.114,-4.45629927988441,-2.41023271205815,
2019/03/02 12:51:55.116,-4.3048919405411,-2.41749295602158,
2019/03/02 12:51:55.118,-4.45355865799093,-2.41939215891268,
2019/03/02 12:51:55.120,-4.4507699550116,-2.42020953737214,
2019/03/02 12:51:55.122,-4.86390668518226,-2.42458491618453,
2019/03/02 12:51:55.124,-5.0343781750653,-2.41201171223462,
2019/03/02 12:51:55.126,-4.65598002942165,-2.39407746721238,
2019/03/02 12:51:55.128,-4.22190398636309,-2.38737015573623,
2019/03/02 12:51:55.130,-4.21873063469696,-2.36155061263449,
2019/03/02 12:51:55.131,-4.34061618732804,-2.37486907341509,
2019/03/02 12:51:55.133,-4.37852812352118,-2.40008760294369,
2019/03/02 12:51:55.135,-4.38634129997189,-2.39078391283161,
2019/03/02 12:51:55.137,-4.72538507684689,-2.41410323946912,
2019/03/02 12:51:55.139,-5.08702696407163,-2.41792568579424,
2019/03/02 12:51:55.141,-4.86020444157177,-2.41155494191904,
2019/03/02 12:51:55.143,-4.30989237346956,-2.40383792764003,
2019/03/02 12:51:55.145,-4.13456469391561,-2.41165110409074,
2019/03/02 12:51:55.147,-4.11706317866602,-2.41088180671713,
2019/03/02 12:51:55.149,-4.24005459627167,-2.40804502265195,
2019/03/02 12:51:55.151,-4.28868861460947,-2.40674683333399,
2019/03/02 12:51:55.153,-4.3955728684552,-2.44013914745718,
2019/03/02 12:51:55.155,-4.53113749001076,-2.4558616625303,
2019/03/02 12:51:55.157,-4.63835831145743,-2.42674856504781,
2019/03/02 12:51:55.159,-4.45839080711891,-2.39157725074815,
2019/03/02 12:51:55.161,-4.20437843057057,-2.37681635739204,
2019/03/02 12:51:55.163,-4.29611714237338,-2.36311324792464,
2019/03/02 12:51:55.165,-4.0512882532225,-2.39253887246516,
2019/03/02 12:51:55.167,-4.0725160526255,-2.39626515661857,
2019/03/02 12:51:55.169,-4.1038168395142,-2.38700954759235,
2019/03/02 12:51:55.171,-4.39619792257125,-2.41020867151523,
2019/03/02 12:51:55.172,-4.7513729037491,-2.41268484743653,
2019/03/02 12:51:55.174,-4.67408255824437,-2.38388427701206,
2019/03/02 12:51:55.176,-4.15045549278921,-2.3760230194755,
2019/03/02 12:51:55.178,-4.0835506618282,-2.39922214339838,
2019/03/02 12:51:55.180,-4.28347181679469,-2.41468021249933,
2019/03/02 12:51:55.182,-4.08028114799036,-2.41669961810505,
2019/03/02 12:51:55.184,-3.90408800889111,-2.40258781940792,
2019/03/02 12:51:55.186,-4.12804970678286,-2.40660259007644,
2019/03/02 12:51:55.188,-4.32145587461661,-2.40470338718534,
2019/03/02 12:51:55.190,-4.49995690583669,-2.40898260382604,
2019/03/02 12:51:55.192,-4.42213766838761,-2.41453596924177,
2019/03/02 12:51:55.194,-4.20952310675658,-2.37441230309951,
2019/03/02 12:51:55.196,-3.90454477920669,-2.40689107659154,
2019/03/02 12:51:55.198,-3.82879302844918,-2.41944023999853,
2019/03/02 12:51:55.200,-3.8442270570072,-2.40650642790474,
2019/03/02 12:51:55.202,-3.97856561087357,-2.39636131879028,
2019/03/02 12:51:55.204,-4.24378088042508,-2.42182025374813,
2019/03/02 12:51:55.206,-4.5650586960783,-2.41044907694448,
2019/03/02 12:51:55.208,-4.36951291992421,-2.39859708928232,
2019/03/02 12:51:55.210,-3.8576416799595,-2.3735468435542,
2019/03/02 12:51:55.212,-3.65517222744293,-2.3851584257871,
2019/03/02 12:51:55.213,-3.7918907950589,-2.38792308822351,
2019/03/02 12:51:55.215,-3.77698565844524,-2.39674596747708,
2019/03/02 12:51:55.217,-3.69022333902796,-2.41775740199376,
2019/03/02 12:51:55.219,-4.02897862938785,-2.40691511713447,
2019/03/02 12:51:55.221,-4.36725310888924,-2.44211047197705,
2019/03/02 12:51:55.223,-4.33335594336461,-2.41626688833239,
2019/03/02 12:51:55.225,-4.10730271823836,-2.40823734699536,
2019/03/02 12:51:55.227,-3.64495499669969,-2.39424575101285,
2019/03/02 12:51:55.229,-3.52489652533092,-2.38679318270602,
2019/03/02 12:51:55.231,-3.42082501500746,-2.40403025198343,
2019/03/02 12:51:55.233,-3.54862454119816,-2.41172322571952,
2019/03/02 12:51:55.235,-3.74477133092538,-2.41520910444368,
2019/03/02 12:51:55.237,-3.98522484126387,-2.43247021426402,
2019/03/02 12:51:55.239,-4.21856235089648,-2.42956130857006,
2019/03/02 12:51:55.241,-4.18995410481542,-2.40816522536658,
2019/03/02 12:51:55.243,-3.85187194965743,-2.38232164172192,
2019/03/02 12:51:55.245,-3.66502885004229,-2.39595262956055,
2019/03/02 12:51:55.247,-3.48311406172682,-2.38801925039521,
2019/03/02 12:51:55.249,-3.44878416642954,-2.42261359166466,
2019/03/02 12:51:55.251,-3.5523748658945,-2.40739592799297,
2019/03/02 12:51:55.253,-3.97507973214941,-2.40073669760267,
2019/03/02 12:51:55.255,-4.06184205156669,-2.42783038947945,
2019/03/02 12:51:55.256,-4.06487115997527,-2.40900664436896,
2019/03/02 12:51:55.258,-3.69709893430459,-2.38984633165753,
2019/03/02 12:51:55.260,-3.46294404621252,-2.37626342490475,
2019/03/02 12:51:55.262,-3.44121139540808,-2.39148108857645,
2019/03/02 12:51:55.264,-3.28975597497892,-2.42609947038883,
2019/03/02 12:51:55.266,-3.64216629372036,-2.40965573902795,
2019/03/02 12:51:55.268,-3.46657416819423,-2.41917579402635,
2019/03/02 12:51:55.270,-3.4727285471831,-2.45001981059946,
2019/03/02 12:51:55.272,-3.9058910496105,-2.43848034999534,
2019/03/02 12:51:55.274,-3.9077902525016,-2.41359838806769,
2019/03/02 12:51:55.276,-3.63017006280065,-2.39477464295721,
2019/03/02 12:51:55.278,-3.2973527865433,-2.39806819733797,
2019/03/02 12:51:55.280,-3.20405143945036,-2.40886240111141,
2019/03/02 12:51:55.282,-3.21042218332555,-2.42444067292698,
2019/03/02 12:51:55.284,-3.33223561432786,-2.3920099805208,
2019/03/02 12:51:55.286,-3.41168960869586,-2.4374946877354,
2019/03/02 12:51:55.288,-3.83970743493725,-2.42182025374813,
2019/03/02 12:51:55.290,-3.86454131577905,-2.39821244059552,
2019/03/02 12:51:55.292,-3.54242208112344,-2.39758738647946,
2019/03/02 12:51:55.294,-3.32281172150116,-2.40951149577039,
2019/03/02 12:51:55.296,-3.32067211318081,-2.39717869724973,
2019/03/02 12:51:55.297,-3.22443781985098,-2.41487253684273,
2019/03/02 12:51:55.299,-3.1853478970545,-2.43345587652396,
2019/03/02 12:51:55.301,-3.22253861695988,-2.42888817336816,
2019/03/02 12:51:55.303,-3.44282211178407,-2.41989701031411,
2019/03/02 12:51:55.305,-3.91478605049285,-2.39729889996436,
2019/03/02 12:51:55.307,-3.8920917779714,-2.41391091512572,
2019/03/02 12:51:55.309,-3.34276537212913,-2.41403111784034,
2019/03/02 12:51:55.311,-3.07913677841069,-2.39114452097549,
2019/03/02 12:51:55.313,-2.95638576623429,-2.41371859078232,
2019/03/02 12:51:55.315,-3.00213491942107,-2.40448702229901,
2019/03/02 12:51:55.317,-3.21965375180885,-2.39835668385307,
2019/03/02 12:51:55.319,-3.30470919267843,-2.41160302300489,
2019/03/02 12:51:55.321,-3.70433513772509,-2.43992278257085,
2019/03/02 12:51:55.323,-3.76208052183157,-2.42037782117261,
2019/03/02 12:51:55.325,-3.46282384349789,-2.38785096659473,
2019/03/02 12:51:55.327,-3.10711997037569,-2.38099941186103,
2019/03/02 12:51:55.329,-3.0141551908837,-2.3960968728181,
2019/03/02 12:51:55.331,-3.00761616320803,-2.40225125180696,
2019/03/02 12:51:55.333,-3.06591447980179,-2.40383792764003,
2019/03/02 12:51:55.335,-3.22749096880249,-2.39595262956055,
2019/03/02 12:51:55.337,-3.28384200141931,-2.4036215627537,
2019/03/02 12:51:55.338,-3.645820456245,-2.40895856328311,
2019/03/02 12:51:55.340,-3.94322601277344,-2.39722677833558,
2019/03/02 12:51:55.342,-3.51256372681026,-2.39301968332366,
2019/03/02 12:51:55.344,-3.28148602821263,-2.40893452274019,
2019/03/02 12:51:55.346,-3.08218992736219,-2.40785269830855,
2019/03/02 12:51:55.348,-2.88837507029872,-2.41605052344607,
2019/03/02 12:51:55.350,-3.00655837931932,-2.41727659113525,
2019/03/02 12:51:55.352,-3.13531952722703,-2.41076160400251,
2019/03/02 12:51:55.354,-3.54605220310516,-2.41814205068056,
2019/03/02 12:51:55.356,-3.78011092902552,-2.4097038201138,
2019/03/02 12:51:55.358,-3.57884350365522,-2.38667297999139,
2019/03/02 12:51:55.360,-3.31579188296698,-2.38232164172192,
2019/03/02 12:51:55.362,-3.10680744331767,-2.40828542808121,
2019/03/02 12:51:55.364,-2.9074873019243,-2.42246934840711,
2019/03/02 12:51:55.366,-3.03716199046318,-2.42482532161379,
2019/03/02 12:51:55.368,-3.12683321557441,-2.40638622519011,
2019/03/02 12:51:55.370,-3.37036391540733,-2.41619476670362,
2019/03/02 12:51:55.372,-3.79629021441422,-2.42095479420282,
2019/03/02 12:51:55.374,-3.82641301469958,-2.42501764595719,
2019/03/02 12:51:55.376,-3.4701562090901,-2.39426979155578,
2019/03/02 12:51:55.378,-3.14611373100047,-2.387442277365,
2019/03/02 12:51:55.380,-2.97756548455145,-2.38398043918376,
2019/03/02 12:51:55.381,-3.09315241493612,-2.38739419627915,
2019/03/02 12:51:55.383,-3.23386171267768,-2.40032800837294,
2019/03/02 12:51:55.385,-3.38764906577059,-2.40335711678153,
2019/03/02 12:51:55.387,-3.54881686554156,-2.41516102335783,
2019/03/02 12:51:55.389,-3.72020189605577,-2.41215595549217,
2019/03/02 12:51:55.391,-3.54528290573155,-2.41405515838327,
2019/03/02 12:51:55.393,-3.17448157165228,-2.40852583351046,
2019/03/02 12:51:55.395,-2.97773376835192,-2.38559115555976,
2019/03/02 12:51:55.397,-2.96540096983126,-2.41530526661538,
2019/03/02 12:51:55.399,-3.12832372923578,-2.40619390084671,
2019/03/02 12:51:55.401,-3.26648472942727,-2.40446298175609,
2019/03/02 12:51:55.403,-3.44097098997883,-2.43821590402316,
2019/03/02 12:51:55.405,-3.67337091843735,-2.44598099938802,
2019/03/02 12:51:55.407,-3.84242401628781,-2.40665067116229,
2019/03/02 12:51:55.409,-3.58307463921006,-2.38895683156929,
2019/03/02 12:51:55.411,-3.27893773066255,-2.40354944112493,
2019/03/02 12:51:55.413,-3.02504555682884,-2.40030396783002,
2019/03/02 12:51:55.415,-2.93857172392667,-2.4032369140669,
2019/03/02 12:51:55.417,-3.05127378916031,-2.39811627842382,
2019/03/02 12:51:55.419,-3.37288817241448,-2.41410323946912,
2019/03/02 12:51:55.421,-3.59079165348907,-2.42393582152555,
2019/03/02 12:51:55.422,-3.721091396144,-2.42013741574336,
2019/03/02 12:51:55.424,-3.56939557028559,-2.41059332020203,
2019/03/02 12:51:55.426,-3.18474688348137,-2.38864430451127,
2019/03/02 12:51:55.428,-3.07420846711101,-2.41232423929265,
2019/03/02 12:51:55.430,-3.0412729233034,-2.40869411731094,
2019/03/02 12:51:55.432,-3.07466523742659,-2.40427065741269,
2019/03/02 12:51:55.434,-3.22366852247737,-2.42391178098263,
2019/03/02 12:51:55.436,-3.43193174583893,-2.42886413282523,
2019/03/02 12:51:55.438,-3.87146499214152,-2.40775653613685,
2019/03/02 12:51:55.440,-3.91526686135135,-2.40737188745005,
2019/03/02 12:51:55.442,-3.43154709715213,-2.38465357438567,
2019/03/02 12:51:55.444,-3.15883117820794,-2.40847775242461,
2019/03/02 12:51:55.446,-3.26691745919992,-2.4123723203785,
2019/03/02 12:51:55.448,-3.16847143592097,-2.41150686083319,
2019/03/02 12:51:55.450,-3.20321002044797,-2.4101846309723,
2019/03/02 12:51:55.452,-3.33216349269909,-2.42302228089439,
2019/03/02 12:51:55.454,-3.3723352399272,-2.44569251287292,
2019/03/02 12:51:55.456,-3.67825114865118,-2.43408093064001,
2019/03/02 12:51:55.458,-3.7190960310812,-2.41400707729742,
2019/03/02 12:51:55.460,-3.3307451006665,-2.40073669760267,
2019/03/02 12:51:55.462,-3.11500526845518,-2.40439086012731,
2019/03/02 12:51:55.463,-3.06781368269289,-2.40422257632684,
2019/03/02 12:51:55.465,-3.15911966472304,-2.41431960435545,
2019/03/02 12:51:55.467,-3.37649425385327,-2.41391091512572,
2019/03/02 12:51:55.469,-3.44073058454958,-2.42494552432841,
2019/03/02 12:51:55.471,-3.81619578395634,-2.43629266058914,
2019/03/02 12:51:55.473,-3.85939663959304,-2.41415132055497,
2019/03/02 12:51:55.475,-3.56321715075379,-2.38027819557327,
2019/03/02 12:51:55.477,-3.23564071285415,-2.40816522536658,
2019/03/02 12:51:55.479,-3.13298759456328,-2.40729976582127,
2019/03/02 12:51:55.481,-3.07214098041943,-2.42049802388724,
2019/03/02 12:51:55.483,-3.24489632188038,-2.41968064542778,
2019/03/02 12:51:55.485,-3.32004705906475,-2.42593118658835,
2019/03/02 12:51:55.487,-3.45981877563224,-2.42879201119646,
2019/03/02 12:51:55.489,-3.8353801372107,-2.41768528036498,
2019/03/02 12:51:55.491,-3.87069569476792,-2.41292525286578,
2019/03/02 12:51:55.493,-3.61290895298031,-2.39568818358837,
2019/03/02 12:51:55.495,-3.5365802291926,-2.39119260206134,
2019/03/02 12:51:55.497,-3.37017159106393,-2.38484589872907,
2019/03/02 12:51:55.499,-3.15443175885261,-2.40554480618773,
2019/03/02 12:51:55.501,-3.30018957060849,-2.42686876776243,
2019/03/02 12:51:55.503,-3.38728845762672,-2.42415218641188,
2019/03/02 12:51:55.505,-3.74905054756608,-2.43076333571633,
2019/03/02 12:51:55.506,-3.92048365916614,-2.43196536286259,
2019/03/02 12:51:55.508,-3.7031090700359,-2.41725255059233,
2019/03/02 12:51:55.510,-3.52047306543268,-2.40357348166785,
2019/03/02 12:51:55.512,-3.3880337144574,-2.39350049418217,
2019/03/02 12:51:55.514,-3.3698590640059,-2.41270888797945,
2019/03/02 12:51:55.516,-3.33100954663867,-2.42393582152555,
2019/03/02 12:51:55.518,-3.36591641496616,-2.39376494015435,
2019/03/02 12:51:55.520,-3.74599739861457,-2.41698810462015,
2019/03/02 12:51:55.522,-4.22298581079473,-2.3988615352545,
2019/03/02 12:51:55.524,-4.18214092836471,-2.4033330762386,
2019/03/02 12:51:55.526,-3.65089301080223,-2.40667471170521,
2019/03/02 12:51:55.528,-3.27874540631915,-2.40102518411778,
2019/03/02 12:51:55.530,-3.26920131077782,-2.40388600872588,
2019/03/02 12:51:55.532,-3.31745068042882,-2.3988615352545,
2019/03/02 12:51:55.534,-3.45743876188263,-2.41278100960823,
2019/03/02 12:51:55.536,-3.56896284051293,-2.41780548307961,
2019/03/02 12:51:55.538,-3.85095840902627,-2.4257869433308,
2019/03/02 12:51:55.540,-4.01469854689024,-2.4098961444572,
2019/03/02 12:51:55.542,-3.89682776492768,-2.40330903569568,
2019/03/02 12:51:55.544,-3.49801919834048,-2.39691425127756,
2019/03/02 12:51:55.546,-3.356636765397,-2.39431787264163,
2019/03/02 12:51:55.547,-3.34014495295027,-2.40859795513923,
2019/03/02 12:51:55.549,-3.48986945428882,-2.41328586100966,
2019/03/02 12:51:55.551,-3.64120467200335,-2.40717956310664,
2019/03/02 12:51:55.553,-3.96284309580045,-2.41528122607246,
2019/03/02 12:51:55.555,-4.19449776742829,-2.40787673885148,
2019/03/02 12:51:55.557,-3.92603702458187,-2.4029484275518,
2019/03/02 12:51:55.559,-3.543527946098,-2.39722677833558,
2019/03/02 12:51:55.561,-3.44469727413224,-2.39941446774178,
2019/03/02 12:51:55.563,-3.42253189355515,-2.38835581799616,
2019/03/02 12:51:55.565,-3.38007629474914,-2.39128876423304,
2019/03/02 12:51:55.567,-3.49501413047482,-2.39878941362573,
2019/03/02 12:51:55.569,-3.72150008537373,-2.41578607747389,
2019/03/02 12:51:55.571,-4.01013084373444,-2.42191641591983,
2019/03/02 12:51:55.573,-4.13338670731227,-2.4141753610979,
2019/03/02 12:51:55.575,-3.94993332424958,-2.39713061616388,
2019/03/02 12:51:55.577,-3.62966521139922,-2.38275437149458,
2019/03/02 12:51:55.579,-3.49563918459088,-2.39258695355101,
2019/03/02 12:51:55.581,-3.40613624328012,-2.39292352115196,
2019/03/02 12:51:55.583,-3.47994071006068,-2.39503908892939,
2019/03/02 12:51:55.585,-3.64493095615677,-2.40160215714798,
2019/03/02 12:51:55.587,-3.91954607799205,-2.42066630768772,
2019/03/02 12:51:55.588,-4.18793469920969,-2.41189150952,
2019/03/02 12:51:55.590,-4.11441871894424,-2.39626515661857,
2019/03/02 12:51:55.592,-3.71592267941507,-2.3851584257871,
2019/03/02 12:51:55.594,-3.59223408606459,-2.38556711501683,
2019/03/02 12:51:55.596,-3.49943759037307,-2.40011164348662,
2019/03/02 12:51:55.598,-3.49155229229358,-2.40097710303193,
2019/03/02 12:51:55.600,-3.57612692230466,-2.40852583351046,
2019/03/02 12:51:55.602,-3.73010659974097,-2.40302054918057,
2019/03/02 12:51:55.604,-3.98195532742604,-2.4150408206432,
2019/03/02 12:51:55.606,-4.26820607203715,-2.40499187370044,
2019/03/02 12:51:55.608,-4.18769429378044,-2.39713061616388,
2019/03/02 12:51:55.610,-3.74633396621553,-2.38580752044608,
2019/03/02 12:51:55.612,-3.6092788309986,-2.38898087211222,
2019/03/02 12:51:55.614,-3.53730144548036,-2.3988615352545,
2019/03/02 12:51:55.616,-3.52143468714969,-2.39953467045641,
2019/03/02 12:51:55.618,-3.68688170356135,-2.40350136003908,
2019/03/02 12:51:55.620,-3.8626901939738,-2.41239636092143,
2019/03/02 12:51:55.622,-4.23644851483288,-2.41364646915354,
2019/03/02 12:51:55.624,-4.26681172054748,-2.39441403481333,
2019/03/02 12:51:55.626,-3.90605933341098,-2.38388427701206,
2019/03/02 12:51:55.628,-3.66163913348982,-2.38612004750411,
2019/03/02 12:51:55.630,-3.59843654613931,-2.39047138577359,
2019/03/02 12:51:55.631,-3.63060279257331,-2.39898173796913,
2019/03/02 12:51:55.633,-3.74900246648023,-2.40650642790474,
2019/03/02 12:51:55.635,-3.78527964575445,-2.40470338718534,
2019/03/02 12:51:55.637,-4.02914691318833,-2.40616986030378,
2019/03/02 12:51:55.639,-4.34465499853949,-2.40338115732445,
2019/03/02 12:51:55.641,-4.3526604993336,-2.39975103534274,
2019/03/02 12:51:55.643,-3.92228669988553,-2.37571049241747,
2019/03/02 12:51:55.645,-3.75373845343651,-2.38455741221397,
2019/03/02 12:51:55.647,-3.68579987912971,-2.39265907517978,
2019/03/02 12:51:55.649,-3.80434379629419,-2.3917214940057,
2019/03/02 12:51:55.651,-3.87096014074009,-2.39527949435864,
2019/03/02 12:51:55.653,-3.94813028353019,-2.40383792764003,
2019/03/02 12:51:55.655,-4.3182104013217,-2.40559288727358,
2019/03/02 12:51:55.657,-4.38694231354503,-2.41030483368693,
2019/03/02 12:51:55.659,-4.06826087652773,-2.37075814057487,
2019/03/02 12:51:55.661,-3.80114640408513,-2.3873461151933,
2019/03/02 12:51:55.663,-3.76616741412887,-2.39614495390395,
2019/03/02 12:51:55.665,-3.72926518073859,-2.39020693980141,
2019/03/02 12:51:55.667,-3.84463574623693,-2.39436595372748,
2019/03/02 12:51:55.669,-3.98724424686959,-2.40854987405338,
2019/03/02 12:51:55.671,-4.39384194936458,-2.41756507765036,
2019/03/02 12:51:55.672,-4.48634995854099,-2.41838245610982,
2019/03/02 12:51:55.674,-4.47887334969123,-2.39578434576007,
2019/03/02 12:51:55.676,-4.03621483280836,-2.38511034470125,
2019/03/02 12:51:55.678,-3.77217754986019,-2.39080795337454,
2019/03/02 12:51:55.680,-3.72373585586578,-2.39871729199695,
2019/03/02 12:51:55.682,-3.83691873195792,-2.39631323770442,
2019/03/02 12:51:55.684,-3.96125641996738,-2.39777971082287,
2019/03/02 12:51:55.686,-4.00919326256036,-2.4079969415661,
2019/03/02 12:51:55.688,-4.38809625960544,-2.41460809087055,
2019/03/02 12:51:55.690,-4.5095731230068,-2.40073669760267,
2019/03/02 12:51:55.692,-4.23719377166356,-2.3871537908499,
2019/03/02 12:51:55.694,-3.90721327947139,-2.38604792587534,
2019/03/02 12:51:55.696,-3.81571497309784,-2.38633641239044,
2019/03/02 12:51:55.698,-3.84071713774011,-2.39198593997788,
2019/03/02 12:51:55.700,-3.94906786470428,-2.39020693980141,
2019/03/02 12:51:55.702,-4.03037298087752,-2.39749122430776,
2019/03/02 12:51:55.704,-4.33785152489164,-2.41030483368693,
2019/03/02 12:51:55.706,-4.61881335005919,-2.40328499515275,
2019/03/02 12:51:55.708,-4.43336460193371,-2.38693742596357,
2019/03/02 12:51:55.710,-4.21317726928122,-2.38083112806055,
2019/03/02 12:51:55.712,-3.90968945539269,-2.37907616842701,
2019/03/02 12:51:55.713,-3.86326716700401,-2.38301881746675,
2019/03/02 12:51:55.715,-3.8667770862711,-2.39285139952319,
2019/03/02 12:51:55.717,-3.99003294984892,-2.39802011625212,
2019/03/02 12:51:55.719,-4.03710433289659,-2.40854987405338,
2019/03/02 12:51:55.721,-4.40865092380654,-2.41581011801681,
2019/03/02 12:51:55.723,-4.59777787499959,-2.4097999822855,
2019/03/02 12:51:55.725,-4.35929568918097,-2.38434104732764,
2019/03/02 12:51:55.727,-4.00412070800313,-2.37595089784673,
2019/03/02 12:51:55.729,-3.93031624122257,-2.38126385783321,
2019/03/02 12:51:55.731,-3.92394549734737,-2.38474973655737,
2019/03/02 12:51:55.733,-3.98173896253971,-2.39301968332366,
2019/03/02 12:51:55.735,-4.06364509228608,-2.39917406231253,
2019/03/02 12:51:55.737,-4.33756303837654,-2.40746804962175,
2019/03/02 12:51:55.739,-4.63929589263152,-2.40597753596038,
2019/03/02 12:51:55.741,-4.48594126931126,-2.39196189943495,
2019/03/02 12:51:55.743,-4.06922249824474,-2.3757345329604,
2019/03/02 12:51:55.745,-3.9674588800421,-2.3801099117728,
2019/03/02 12:51:55.747,-3.90497750897934,-2.38359579049696,
2019/03/02 12:51:55.749,-3.92848915996025,-2.38585560153193,
2019/03/02 12:51:55.751,-4.06881380901501,-2.39881345416865,
2019/03/02 12:51:55.753,-4.16040827756027,-2.39823648113845,
2019/03/02 12:51:55.755,-4.45757342865945,-2.40484763044289,
2019/03/02 12:51:55.756,-4.68499696473244,-2.3966738458483,
2019/03/02 12:51:55.758,-4.46630014574132,-2.38205719574974,
2019/03/02 12:51:55.760,-4.06035153790532,-2.38126385783321,
2019/03/02 12:51:55.762,-3.93779285007233,-2.38294669583798,
2019/03/02 12:51:55.764,-3.93978821513512,-2.38333134452478,
2019/03/02 12:51:55.766,-4.03229622431154,-2.39470252132843,
2019/03/02 12:51:55.768,-4.14228170819462,-2.3944861564421,
2019/03/02 12:51:55.770,-4.36215651378908,-2.40924704979822,
2019/03/02 12:51:55.772,-4.67939551823086,-2.40318883298105,
2019/03/02 12:51:55.774,-4.62818916180005,-2.38703358813527,
2019/03/02 12:51:55.776,-4.23524648768661,-2.37467674907169,
2019/03/02 12:51:55.778,-4.0377774680985,-2.38232164172192,
2019/03/02 12:51:55.780,-3.98289290860012,-2.38347558778233,
2019/03/02 12:51:55.782,-4.04902844218752,-2.3893414802561,
2019/03/02 12:51:55.784,-4.19235815910794,-2.39506312947231,
2019/03/02 12:51:55.786,-4.21014816087264,-2.3917214940057,
2019/03/02 12:51:55.788,-4.48656632342732,-2.40576117107405,
2019/03/02 12:51:55.790,-4.72718811756628,-2.40013568402954,
2019/03/02 12:51:55.792,-4.60424478104648,-2.38777884496596,
2019/03/02 12:51:55.794,-4.19690182172082,-2.37936465494211,
2019/03/02 12:51:55.796,-4.06160164613743,-2.37982142525769,
2019/03/02 12:51:55.797,-4.00505828917721,-2.38727399356453,
2019/03/02 12:51:55.799,-4.0744152555166,-2.38785096659473,
2019/03/02 12:51:55.801,-4.18730964509364,-2.39258695355101,
2019/03/02 12:51:55.803,-4.36725310888924,-2.39953467045641,
2019/03/02 12:51:55.805,-4.69369964127139,-2.40470338718534,
2019/03/02 12:51:55.807,-4.69814714171256,-2.3917214940057,
2019/03/02 12:51:55.809,-4.32857187532249,-2.36833004573942,
2019/03/02 12:51:55.811,-4.07035240376223,-2.37561433024577,
2019/03/02 12:51:55.813,-3.98726828741252,-2.38551903393098,
2019/03/02 12:51:55.815,-4.0357821030357,-2.38881258831174,
2019/03/02 12:51:55.817,-4.17132268404834,-2.39422171046993,
2019/03/02 12:51:55.819,-4.25111324601729,-2.40540056293017,
2019/03/02 12:51:55.821,-4.63013644577699,-2.40900664436896,
2019/03/02 12:51:55.823,-4.73476088858774,-2.40237145452159,
2019/03/02 12:51:55.825,-4.65408082653056,-2.38318710126723,
2019/03/02 12:51:55.827,-4.28436131688293,-2.37157551903433,
2019/03/02 12:51:55.829,-4.08682017566604,-2.38143214163369,
2019/03/02 12:51:55.831,-4.02282425039898,-2.38441316895642,
2019/03/02 12:51:55.833,-4.06277963274077,-2.38806733148106,
2019/03/02 12:51:55.835,-4.22062983758805,-2.39376494015435,
2019/03/02 12:51:55.837,-4.34405398496636,-2.40713148202079,
2019/03/02 12:51:55.838,-4.70533526404722,-2.40145791389043,
2019/03/02 12:51:55.840,-4.73216450995181,-2.38929339917025,
2019/03/02 12:51:55.842,-4.38021096152595,-2.37388341115515,
2019/03/02 12:51:55.844,-4.12978062587348,-2.37607110056135,
2019/03/02 12:51:55.846,-4.04953329358895,-2.37698464119251,
2019/03/02 12:51:55.848,-4.07768476935444,-2.38871642614004,
2019/03/02 12:51:55.850,-4.19572383511748,-2.39989527860029,
2019/03/02 12:51:55.852,-4.26878304506736,-2.39614495390395,
2019/03/02 12:51:55.854,-4.63802174385648,-2.40814118482365,
2019/03/02 12:51:55.856,-4.80782009853762,-2.4005684138022,
2019/03/02 12:51:55.858,-4.56294312830088,-2.37835495213925,
2019/03/02 12:51:55.860,-4.34210670098941,-2.37296987052399,
2019/03/02 12:51:55.862,-4.14833992501178,-2.38066284426008,
2019/03/02 12:51:55.864,-4.08451228354521,-2.37746545205102,
2019/03/02 12:51:55.866,-4.12917961230035,-2.39015885871556,
2019/03/02 12:51:55.868,-4.26135451730345,-2.39073583174576,
2019/03/02 12:51:55.870,-4.36097852718574,-2.40282822483717,
2019/03/02 12:51:55.872,-4.72995278000269,-2.40511207641507,
2019/03/02 12:51:55.874,-4.81185890974906,-2.39811627842382,
2019/03/02 12:51:55.876,-4.50313025750283,-2.38299477692383,
2019/03/02 12:51:55.878,-4.19331978082495,-2.38085516860348,
2019/03/02 12:51:55.880,-4.11179829976538,-2.38227356063607,
2019/03/02 12:51:55.881,-4.13249720722404,-2.38960592622828,
2019/03/02 12:51:55.883,-4.24378088042508,-2.38859622342542,
2019/03/02 12:51:55.885,-4.3073681164624,-2.39746718376484,
2019/03/02 12:51:55.887,-4.64061812249241,-2.40143387334751,
2019/03/02 12:51:55.889,-4.84121241266081,-2.39689021073463,
2019/03/02 12:51:55.891,-4.65797539448445,-2.38333134452478,
2019/03/02 12:51:55.893,-4.26998507221362,-2.37662403304863,
2019/03/02 12:51:55.895,-4.15401349314215,-2.37775393856612,
2019/03/02 12:51:55.897,-4.14723406003722,-2.37962910091429,
2019/03/02 12:51:55.899,-4.17754918466598,-2.38042243883083,
2019/03/02 12:51:55.901,-4.29270338527799,-2.38922127754147,
2019/03/02 12:51:55.903,-4.36213247324615,-2.39499100784354,
2019/03/02 12:51:55.905,-4.72930368534371,-2.40455914392779,
2019/03/02 12:51:55.907,-4.87318633475141,-2.3962891971615,
2019/03/02 12:51:55.909,-4.60234557815539,-2.37931657385626,
2019/03/02 12:51:55.911,-4.26308543639407,-2.37938869548504,
2019/03/02 12:51:55.913,-4.16901479192751,-2.38236972280777,
2019/03/02 12:51:55.915,-4.18543448274547,-2.38400447972669,
2019/03/02 12:51:55.917,-4.27299014007928,-2.38746631790793,
2019/03/02 12:51:55.919,-4.34910249898066,-2.39650556204783,
2019/03/02 12:51:55.921,-4.61994325557668,-2.40871815785386,
2019/03/02 12:51:55.922,-4.8789801055964,-2.39972699479981,
2019/03/02 12:51:55.924,-4.74983430900188,-2.37986950634354,
2019/03/02 12:51:55.926,-4.35107382350053,-2.37058985677439,
2019/03/02 12:51:55.928,-4.21276858005149,-2.37785010073782,
2019/03/02 12:51:55.930,-4.172717035538,-2.38462953384275,
2019/03/02 12:51:55.932,-4.27121113990281,-2.38847602071079,
2019/03/02 12:51:55.934,-4.32806702392106,-2.39215422377835,
2019/03/02 12:51:55.936,-4.38766352983278,-2.3895338045995,
2019/03/02 12:51:55.938,-4.73644372659251,-2.40366964383956,
2019/03/02 12:51:55.940,-4.92340702892228,-2.39414958884115,
2019/03/02 12:51:55.942,-4.7127397512682,-2.37426805984196,
2019/03/02 12:51:55.944,-4.34092871438607,-2.37022924863051,
2019/03/02 12:51:55.946,-4.2274333112359,-2.38198507412097,
2019/03/02 12:51:55.948,-4.2204855943305,-2.38700954759235,
2019/03/02 12:51:55.950,-4.31724877960469,-2.39059158848821,
2019/03/02 12:51:55.952,-4.41064628886934,-2.39684212964878,
2019/03/02 12:51:55.954,-4.64607532573644,-2.4097999822855,
2019/03/02 12:51:55.956,-4.92600340755821,-2.40643430627596,
2019/03/02 12:51:55.958,-4.84590031853123,-2.38746631790793,
2019/03/02 12:51:55.960,-4.46113142901239,-2.37720100607884,
2019/03/02 12:51:55.962,-4.27803865409358,-2.38114365511858,
2019/03/02 12:51:55.963,-4.20942694458488,-2.38700954759235,
2019/03/02 12:51:55.965,-4.28928962818261,-2.39537565653034,
2019/03/02 12:51:55.967,-4.42531102005375,-2.39943850828471,
2019/03/02 12:51:55.969,-4.54238846409978,-2.4122761582068,
2019/03/02 12:51:55.971,-4.7560367690766,-2.41186746897707,
2019/03/02 12:51:55.973,-4.98874922459315,-2.40225125180696,
2019/03/02 12:51:55.975,-4.81164254486273,-2.38612004750411,
2019/03/02 12:51:55.977,-4.39951551749494,-2.38330730398186,
2019/03/02 12:51:55.979,-4.27409600505384,-2.38530266904465,
2019/03/02 12:51:55.981,-4.25368558411029,-2.38859622342542,
2019/03/02 12:51:55.983,-4.3553289995983,-2.39234654812176,
2019/03/02 12:51:55.985,-4.4620930507294,-2.40083285977437,
2019/03/02 12:51:55.987,-4.64285389298446,-2.41129049594686,
2019/03/02 12:51:55.989,-4.97692127747392,-2.40972786065672,
2019/03/02 12:51:55.991,-4.93083555668619,-2.39328412929584,
2019/03/02 12:51:55.993,-4.55274993810057,-2.37748949259394,
2019/03/02 12:51:55.995,-4.35174695870244,-2.38042243883083,
2019/03/02 12:51:55.997,-4.31736898231931,-2.3830668985526,
2019/03/02 12:51:55.999,-4.34554449862772,-2.39446211589918,
2019/03/02 12:51:56.001,-4.48137356615546,-2.40431873849854,
2019/03/02 12:51:56.003,-4.56580395290899,-2.41016059042938,
2019/03/02 12:51:56.005,-4.92297429914963,-2.40681895496276,
2019/03/02 12:51:56.006,-5.00197152320204,-2.39806819733797,
2019/03/02 12:51:56.008,-4.89393332329591,-2.39104835880379,
2019/03/02 12:51:56.010,-4.50125509515465,-2.37866747919728,
2019/03/02 12:51:56.012,-4.35648294565872,-2.38580752044608,
2019/03/02 12:51:56.014,-4.320686577243,-2.3917214940057,
2019/03/02 12:51:56.016,-4.38617301617142,-2.39318796712414,
2019/03/02 12:51:56.018,-4.52303582704494,-2.39698637290633,
2019/03/02 12:51:56.020,-4.65715801602499,-2.40595349541746,
2019/03/02 12:51:56.022,-5.00153879342939,-2.40371772492541,
2019/03/02 12:51:56.024,-5.01490533529584,-2.39602475118932,
2019/03/02 12:51:56.026,-4.65292688047014,-2.38518246633003,
2019/03/02 12:51:56.028,-4.38232652930338,-2.38090324968933,
2019/03/02 12:51:56.030,-4.31357057653712,-2.39066371011699,
2019/03/02 12:51:56.032,-4.38141298867222,-2.39821244059552,
2019/03/02 12:51:56.034,-4.49971650040744,-2.40595349541746,
2019/03/02 12:51:56.036,-4.55702915474127,-2.40806906319488,
2019/03/02 12:51:56.038,-4.93186930003198,-2.41328586100966,
2019/03/02 12:51:56.040,-5.07810792264635,-2.40306863026642,
2019/03/02 12:51:56.042,-4.80955101762824,-2.38160042543416,
2019/03/02 12:51:56.044,-4.4527653200744,-2.38316306072431,
2019/03/02 12:51:56.046,-4.36326237876364,-2.38679318270602,
2019/03/02 12:51:56.047,-4.34222690370404,-2.38825965582446,
2019/03/02 12:51:56.049,-4.43348480464834,-2.39186573726325,
2019/03/02 12:51:56.051,-4.57392965641773,-2.39655364313368,
2019/03/02 12:51:56.053,-4.68504504581829,-2.40929513088407,
2019/03/02 12:51:56.055,-5.01774211936102,-2.41725255059233,
2019/03/02 12:51:56.057,-5.06861190819088,-2.40186660312016,
2019/03/02 12:51:56.059,-4.7491852143429,-2.38099941186103,
2019/03/02 12:51:56.061,-4.4684637946046,-2.38722591247868,
2019/03/02 12:51:56.063,-4.37643659628669,-2.38900491265514,
2019/03/02 12:51:56.065,-4.4371630077159,-2.39244271029346,
2019/03/02 12:51:56.067,-4.57087650746622,-2.40578521161698,
2019/03/02 12:51:56.069,-4.59308996912916,-2.41131453648979,
2019/03/02 12:51:56.071,-4.93302324609239,-2.41419940164082,
2019/03/02 12:51:56.073,-5.13551673915188,-2.40251569777914,
2019/03/02 12:51:56.075,-4.93963439539684,-2.38205719574974,
2019/03/02 12:51:56.077,-4.52784393563,-2.37150339740555,
2019/03/02 12:51:56.079,-4.4003328959544,-2.37623938436183,
2019/03/02 12:51:56.081,-4.37783094777635,-2.38400447972669,
2019/03/02 12:51:56.083,-4.50305813587405,-2.39393322395482,
2019/03/02 12:51:56.085,-4.56241423635653,-2.39496696730061,
2019/03/02 12:51:56.087,-4.63210777029686,-2.39917406231253,
2019/03/02 12:51:56.088,-5.00617861821397,-2.41056927965911,
2019/03/02 12:51:56.090,-5.12722275184267,-2.40054437325927,
2019/03/02 12:51:56.092,-4.85743977913536,-2.38186487140634,
2019/03/02 12:51:56.094,-4.52399744876195,-2.38794712876643,
2019/03/02 12:51:56.096,-4.44439921113641,-2.38609600696119,
2019/03/02 12:51:56.098,-4.43348480464834,-2.39253887246516,
2019/03/02 12:51:56.100,-4.58462769801947,-2.38874046668297,
2019/03/02 12:51:56.102,-4.65266243449797,-2.39352453472509,
2019/03/02 12:51:56.104,-4.95915531625215,-2.40412641415514,
2019/03/02 12:51:56.106,-5.19340636651592,-2.39556798087374,
2019/03/02 12:51:56.108,-4.96059774882767,-2.38984633165753,
2019/03/02 12:51:56.110,-4.53224335498532,-2.37705676282129,
2019/03/02 12:51:56.112,-4.43425410202195,-2.38436508787057,
2019/03/02 12:51:56.114,-4.38506715119686,-2.3823937633507,
2019/03/02 12:51:56.116,-4.49651910819838,-2.3829707363809,
2019/03/02 12:51:56.118,-4.60946157886127,-2.38850006125371,
2019/03/02 12:51:56.120,-4.81899895099786,-2.40893452274019,
2019/03/02 12:51:56.122,-5.00865479413527,-2.41847861828152,
2019/03/02 12:51:56.124,-5.15277784897222,-2.40607369813208,
2019/03/02 12:51:56.126,-4.92468117769732,-2.38340346615356,
2019/03/02 12:51:56.128,-4.56383262838912,-2.37893192516946,
2019/03/02 12:51:56.130,-4.42446960105136,-2.38398043918376,
2019/03/02 12:51:56.131,-4.37174869041626,-2.38419680407009,
