Shimmer,Shimmer,Shimmer,Shimmer,Shimmer,Shimmer,Shimmer,
RAW,CAL,RAW,RAW,CAL,RAW,CAL,
no units,mSecs,no units,no units,mVolts,no units,mVolts,
Timestamp,Timestamp (mSecs),EXG1 Sta,EMG CH1,EMG CH1 (mVolts),EMG CH2,EMG CH2,
32,0,126,-1847425,-44.4131000137051,1341180,32.242695360505,
64,0.9765625,115,-3208305,-77.1293940698378,-1578891,-37.9573968598124,
96,1.953125,126,-1847425,-44.4131000137051,1341180,32.242695360505,
128,2.9296875,115,-3208305,-77.1293940698378,-1578891,-37.9573968598124,
160,3.90625,126,-1847425,-44.4131000137051,1341180,32.242695360505,
192,4.8828125,115,-3208305,-77.1293940698378,-1578891,-37.9573968598124,
224,5.859375,126,-1847425,-44.4131000137051,1341180,32.242695360505,
256,6.8359375,115,-3208305,-77.1293940698378,-1578891,-37.9573968598124,
288,7.8125,128,8388607,201.666666666667,2389308,57.4402615356757,
320,8.7890625,128,8388607,201.666666666667,2389308,57.4402615356757,
352,9.765625,128,8388607,201.666666666667,2625541,63.1194311125395,
384,10.7421875,128,8388607,201.666666666667,2625541,63.1194311125395,
416,11.71875,128,3572682,85.8892149793166,2320633,55.7892772502832,
448,12.6953125,128,3572682,85.8892149793166,2320633,55.7892772502832,
480,13.671875,128,-5593102,-134.461208716378,2334972,56.1339945952886,
512,14.6484375,128,-5593102,-134.461208716378,2334972,56.1339945952886,
544,15.625,128,-8388608,-201.66669070721,1815838,43.6537313843248,
576,16.6015625,128,-8388608,-201.66669070721,1815838,43.6537313843248,
608,17.578125,128,-8388608,-201.66669070721,1170339,28.1355849666101,
640,18.5546875,128,-8388608,-201.66669070721,1170339,28.1355849666101,
672,19.53125,128,-8388608,-201.66669070721,1352991,32.5266382129953,
704,20.5078125,128,-8388608,-201.66669070721,1352991,32.5266382129953,
736,21.484375,128,2023744,48.6519045017446,1999525,48.0696665926377,
768,22.4609375,128,2023744,48.6519045017446,1999525,48.0696665926377,
800,23.4375,128,8388607,201.666666666667,2251276,54.1218973146157,
832,24.4140625,128,8388607,201.666666666667,2251276,54.1218973146157,
864,25.390625,128,8388607,201.666666666667,2498651,60.0689266207528,
896,26.3671875,128,8388607,201.666666666667,2498651,60.0689266207528,
928,27.34375,128,5923329,142.400045084959,2477871,59.5693641387658,
960,28.3203125,128,5923329,142.400045084959,2477871,59.5693641387658,
992,29.296875,128,-4477749,-107.647517043056,2408301,57.8968635674552,
1024,30.2734375,128,-4477749,-107.647517043056,2408301,57.8968635674552,
1056,31.25,128,-8388608,-201.66669070721,2022603,48.6244742422669,
1088,32.2265625,128,-8388608,-201.66669070721,2022603,48.6244742422669,
1120,33.203125,128,-8388608,-201.66669070721,1226308,29.4811101135941,
1152,34.1796875,128,-8388608,-201.66669070721,1226308,29.4811101135941,
1184,35.15625,128,-8388608,-201.66669070721,1177405,28.30545544292,
1216,36.1328125,128,-8388608,-201.66669070721,1177405,28.30545544292,
1248,37.109375,128,-3559181,-85.5646436092826,1848892,44.4483674901765,
1280,38.0859375,128,-3559181,-85.5646436092826,1848892,44.4483674901765,
1312,39.0625,128,-3559181,-85.5646436092826,1848892,44.4483674901765,
1344,40.0390625,128,8388607,201.666666666667,1786450,42.9472279088371,
1376,41.015625,128,8388607,201.666666666667,1786450,42.9472279088371,
1408,41.9921875,128,8388607,201.666666666667,1906859,45.8419256419252,
1440,42.96875,128,8388607,201.666666666667,1906859,45.8419256419252,
1472,43.9453125,128,7435768,178.759899786301,2485654,59.7564716843532,
1504,44.921875,128,7435768,178.759899786301,2485654,59.7564716843532,
1536,45.8984375,128,-2231530,-53.6471927540135,2553785,61.3943779143943,
1568,46.875,128,-2231530,-53.6471927540135,2553785,61.3943779143943,
1600,47.8515625,128,-6758683,-162.482408779749,2091392,50.2781991495529,
1632,48.828125,128,-6758683,-162.482408779749,2091392,50.2781991495529,
1664,49.8046875,128,-8388608,-201.66669070721,1451783,34.901651529668,
1696,50.78125,128,-8388608,-201.66669070721,1451783,34.901651529668,
1728,51.7578125,128,-8388608,-201.66669070721,1278234,30.7294393455314,
1760,52.734375,128,-8388608,-201.66669070721,1278234,30.7294393455314,
1792,53.7109375,128,-7401491,-177.935862096452,1567318,37.6791756565383,
1824,54.6875,128,-7401491,-177.935862096452,1567318,37.6791756565383,
1856,55.6640625,128,6135989,147.512506943445,2160138,51.9308903134931,
1888,56.640625,128,6135989,147.512506943445,2160138,51.9308903134931,
1920,57.6171875,128,8388607,201.666666666667,2384819,57.3323435384842,
1952,58.59375,128,8388607,201.666666666667,2384819,57.3323435384842,
1984,59.5703125,128,8388607,201.666666666667,2290118,55.0556800829188,
2016,60.546875,128,8388607,201.666666666667,2290118,55.0556800829188,
2048,61.5234375,128,-2419649,-58.1696756485711,2237851,53.7991530258441,
2080,62.5,128,-2419649,-58.1696756485711,2237851,53.7991530258441,
2112,63.4765625,128,-6500332,-156.271510474465,1996810,48.0043965185956,
2144,64.453125,128,-6500332,-156.271510474465,1996810,48.0043965185956,
2176,65.4296875,128,-8388608,-201.66669070721,1570968,37.7669236382155,
2208,66.40625,128,-8388608,-201.66669070721,1570968,37.7669236382155,
2240,67.3828125,128,-8388608,-201.66669070721,1128022,27.1182613116417,
2272,68.359375,128,-8388608,-201.66669070721,1128022,27.1182613116417,
2304,69.3359375,128,-8388608,-201.66669070721,1188270,28.566655941803,
2336,70.3125,128,-8388608,-201.66669070721,1188270,28.566655941803,
2368,71.2890625,128,2057900,49.4730332859,1710362,41.1180310787397,
2400,72.265625,128,2057900,49.4730332859,1710362,41.1180310787397,
2432,73.2421875,128,8388607,201.666666666667,1679123,40.3670285582974,
2464,74.21875,128,8388607,201.666666666667,1679123,40.3670285582974,
2496,75.1953125,128,8388607,201.666666666667,2064743,49.6375427211375,
2528,76.171875,128,8388607,201.666666666667,2064743,49.6375427211375,
2560,77.1484375,128,6538467,157.188296578919,2011896,48.3670721491661,
2592,78.125,128,6538467,157.188296578919,2011896,48.3670721491661,
2624,79.1015625,128,-3534829,-84.9792083079666,2175128,52.2912580519428,
2656,80.078125,128,-3534829,-84.9792083079666,2175128,52.2912580519428,
2688,81.0546875,128,-3534829,-84.9792083079666,2175128,52.2912580519428,
2720,82.03125,128,-8111095,-194.995127518391,1748999,42.0468855357431,
2752,83.0078125,128,-8111095,-194.995127518391,1748999,42.0468855357431,
2784,83.984375,128,-8388608,-201.66669070721,1235559,29.7035091761958,
2816,84.9609375,128,-8388608,-201.66669070721,1235559,29.7035091761958,
2848,85.9375,128,-8388608,-201.66669070721,1459328,35.0830374260391,
2880,86.9140625,128,-8388608,-201.66669070721,1459328,35.0830374260391,
2912,87.890625,128,-3043340,-73.1635459061717,2070753,49.7820263841184,
2944,88.8671875,128,-3043340,-73.1635459061717,2070753,49.7820263841184,
2976,89.84375,128,8388607,201.666666666667,2170927,52.1902637311137,
3008,90.8203125,128,8388607,201.666666666667,2170927,52.1902637311137,
3040,91.796875,128,8388607,201.666666666667,1779079,42.770025066935,
3072,92.7734375,128,8388607,201.666666666667,1779079,42.770025066935,
3104,93.75,128,8051082,193.552382415817,1613388,38.7867234691052,
3136,94.7265625,128,8051082,193.552382415817,1613388,38.7867234691052,
3168,95.703125,128,-620556,-14.9185031555299,1516168,36.4495018859111,
3200,96.6796875,128,-620556,-14.9185031555299,1516168,36.4495018859111,
3232,97.65625,128,-6272021,-150.782790078655,2150421,51.6972883578883,
3264,98.6328125,128,-6272021,-150.782790078655,2150421,51.6972883578883,
3296,99.609375,128,-8388608,-201.66669070721,1560423,37.5134161130686,
3328,100.5859375,128,-8388608,-201.66669070721,1560423,37.5134161130686,
3360,101.5625,128,-8388608,-201.66669070721,1284799,30.8872655098357,
3392,102.5390625,128,-8388608,-201.66669070721,1284799,30.8872655098357,
3424,103.515625,128,-7286928,-175.181705377305,1791722,43.0739696511391,
3456,104.4921875,128,-7286928,-175.181705377305,1791722,43.0739696511391,
3488,105.46875,128,6187956,148.761821837642,2064869,49.6405718295461,
3520,106.4453125,128,6187956,148.761821837642,2064869,49.6405718295461,
3552,107.421875,128,8388607,201.666666666667,2013342,48.4018347742361,
3584,108.3984375,128,8388607,201.666666666667,2013342,48.4018347742361,
3616,109.375,128,8388607,201.666666666667,1168475,28.0907733945974,
3648,110.3515625,128,8388607,201.666666666667,1168475,28.0907733945974,
3680,111.328125,128,5116603,123.005914053032,1448673,34.8268854411704,
3712,112.3046875,128,5116603,123.005914053032,1448673,34.8268854411704,
3744,113.28125,128,-4232282,-101.74635709282,1736933,41.7568123448069,
3776,114.2578125,128,-4232282,-101.74635709282,1736933,41.7568123448069,
3808,115.234375,128,-8388608,-201.66669070721,1506128,36.2081348349414,
3840,116.2109375,128,-8388608,-201.66669070721,1506128,36.2081348349414,
3872,117.1875,128,-8388608,-201.66669070721,1253164,30.126742934395,
3904,118.1640625,128,-8388608,-201.66669070721,1253164,30.126742934395,
3936,119.140625,128,-8388608,-201.66669070721,1769956,42.5507031938279,
3968,120.1171875,128,-8388608,-201.66669070721,1769956,42.5507031938279,
4000,121.09375,128,-8388608,-201.66669070721,1769956,42.5507031938279,
4032,122.0703125,128,2446324,58.8109571311025,1832335,44.0503282209629,
4064,123.046875,128,2446324,58.8109571311025,1832335,44.0503282209629,
4096,124.0234375,128,8388607,201.666666666667,1394125,33.5155219056831,
4128,125,128,8388607,201.666666666667,1394125,33.5155219056831,
4160,125.9765625,128,8388607,201.666666666667,1857198,44.6480482397137,
4192,126.953125,128,8388607,201.666666666667,1857198,44.6480482397137,
4224,127.9296875,128,8388607,201.666666666667,1567026,37.6721558180041,
4256,128.90625,128,8388607,201.666666666667,1567026,37.6721558180041,
4288,129.8828125,128,1883783,45.2871660733818,1577628,37.9270336540978,
4320,130.859375,128,1883783,45.2871660733818,1577628,37.9270336540978,
4352,131.8359375,128,-7683591,-184.717699255669,1588411,38.1862628284609,
4384,132.8125,128,-7683591,-184.717699255669,1588411,38.1862628284609,
4416,133.7890625,128,-8388608,-201.66669070721,1205913,28.9908032406334,
4448,134.765625,128,-8388608,-201.66669070721,1205913,28.9908032406334,
4480,135.7421875,128,-8388608,-201.66669070721,1127386,27.1029715263412,
4512,136.71875,128,-8388608,-201.66669070721,1127386,27.1029715263412,
4544,137.6953125,128,-2538938,-61.0374479735829,1671294,40.1788151477355,
4576,138.671875,128,-2538938,-61.0374479735829,1671294,40.1788151477355,
4608,139.6484375,128,8388607,201.666666666667,1391657,33.4561898457436,
4640,140.625,128,8388607,201.666666666667,1391657,33.4561898457436,
4672,141.6015625,128,8388607,201.666666666667,1703313,40.9485692916595,
4704,142.578125,128,8388607,201.666666666667,1703313,40.9485692916595,
4736,143.5546875,128,8388607,201.666666666667,1891043,45.4617004150192,
4768,144.53125,128,8388607,201.666666666667,1891043,45.4617004150192,
4800,145.5078125,128,5495677,132.119058821884,1585601,38.1187089028409,
4832,146.484375,128,5495677,132.119058821884,1585601,38.1187089028409,
4864,147.4609375,128,-4153376,-99.8494140127596,1958330,47.0793164268315,
4896,148.4375,128,-4153376,-99.8494140127596,1958330,47.0793164268315,
4928,149.4140625,128,-8388608,-201.66669070721,1732587,41.6523321452537,
4960,150.390625,128,-8388608,-201.66669070721,1732587,41.6523321452537,
4992,151.3671875,128,-8388608,-201.66669070721,1336238,32.1238869973684,
5024,152.34375,128,-8388608,-201.66669070721,1336238,32.1238869973684,
5056,153.3203125,128,-6471986,-155.590057244705,1863406,44.7972919301937,
5088,154.296875,128,-6471986,-155.590057244705,1863406,44.7972919301937,
5120,155.2734375,128,7077291,170.141918080082,1858079,44.6692279580309,
5152,156.25,128,7077291,170.141918080082,1858079,44.6692279580309,
5184,157.2265625,128,8388607,201.666666666667,1783789,42.883256024113,
5216,158.203125,128,8388607,201.666666666667,1783789,42.883256024113,
5248,159.1796875,128,8388607,201.666666666667,1516419,36.4555360621853,
5280,160.15625,128,8388607,201.666666666667,1516419,36.4555360621853,
5312,161.1328125,128,8388607,201.666666666667,1516419,36.4555360621853,
5344,162.109375,128,8236894,198.019403777846,1577866,37.932755303314,
5376,163.0859375,128,8236894,198.019403777846,1577866,37.932755303314,
5408,164.0625,128,-976033,-23.4643632329738,1997203,48.0138444519652,
5440,165.0390625,128,-976033,-23.4643632329738,1997203,48.0138444519652,
5472,166.015625,128,-8388608,-201.66669070721,1770164,42.5557036267563,
5504,166.9921875,128,-8388608,-201.66669070721,1770164,42.5557036267563,
5536,167.96875,128,-8388608,-201.66669070721,1074133,25.8227404939422,
5568,168.9453125,128,-8388608,-201.66669070721,1074133,25.8227404939422,
5600,169.921875,128,-8388608,-201.66669070721,1517041,36.4704892798848,
5632,170.8984375,128,-8388608,-201.66669070721,1517041,36.4704892798848,
5664,171.875,128,2621786,63.0291588738551,1483535,35.6649868486309,
5696,172.8515625,128,2621786,63.0291588738551,1483535,35.6649868486309,
5728,173.828125,128,8388607,201.666666666667,845596,20.3285869354312,
5760,174.8046875,128,8388607,201.666666666667,845596,20.3285869354312,
5792,175.78125,128,8388607,201.666666666667,1280821,30.791632230079,
5824,176.7578125,128,8388607,201.666666666667,1280821,30.791632230079,
5856,177.734375,128,8388607,201.666666666667,1475790,35.4787928436748,
5888,178.7109375,128,8388607,201.666666666667,1475790,35.4787928436748,
5920,179.6875,128,1069328,25.7072256851863,1562262,37.5576266715082,
5952,180.6640625,128,1069328,25.7072256851863,1562262,37.5576266715082,
5984,181.640625,128,-7455498,-179.234219698217,1593388,38.3059126105999,
6016,182.6171875,128,-7455498,-179.234219698217,1593388,38.3059126105999,
6048,183.59375,128,-8388608,-201.66669070721,1319328,31.7173614165022,
6080,184.5703125,128,-8388608,-201.66669070721,1319328,31.7173614165022,
6112,185.546875,128,-8388608,-201.66669070721,1353629,32.5419760793816,
6144,186.5234375,128,-8388608,-201.66669070721,1353629,32.5419760793816,
6176,187.5,128,-1813917,-43.6075495013654,1767199,42.4844234169829,
6208,188.4765625,128,-1813917,-43.6075495013654,1767199,42.4844234169829,
6240,189.453125,128,8388607,201.666666666667,1448418,34.8207551027244,
6272,190.4296875,128,8388607,201.666666666667,1448418,34.8207551027244,
6304,191.40625,128,8388607,201.666666666667,1259691,30.2836555580682,
6336,192.3828125,128,8388607,201.666666666667,1259691,30.2836555580682,
6368,193.359375,128,8388607,201.666666666667,1467961,35.2905794331129,
6400,194.3359375,128,8388607,201.666666666667,1467961,35.2905794331129,
6432,195.3125,128,6917724,166.305840767126,1471298,35.3708027248545,
6464,196.2890625,128,6917724,166.305840767126,1471298,35.3708027248545,
6496,197.265625,128,-4093746,-98.4158764381261,1698631,40.8360114696834,
6528,198.2421875,128,-4093746,-98.4158764381261,1698631,40.8360114696834,
6560,199.21875,128,-8388608,-201.66669070721,1459174,35.0793351824286,
6592,200.1953125,128,-8388608,-201.66669070721,1459174,35.0793351824286,
6624,201.171875,128,-8388608,-201.66669070721,1213376,29.1702178124846,
6656,202.1484375,128,-8388608,-201.66669070721,1213376,29.1702178124846,
6688,203.125,128,-8388608,-201.66669070721,1213376,29.1702178124846,
6720,204.1015625,128,-6150657,-147.865133627073,1316953,31.6602651270547,
6752,205.078125,128,-6150657,-147.865133627073,1316953,31.6602651270547,
6784,206.0546875,128,7330288,176.224103318545,1523883,36.6349746745795,
6816,207.03125,128,7330288,176.224103318545,1523883,36.6349746745795,
6848,208.0078125,128,8388607,201.666666666667,993033,23.8730524627033,
6880,208.984375,128,8388607,201.666666666667,993033,23.8730524627033,
6912,209.9609375,128,8388607,201.666666666667,1151938,27.6932149362423,
6944,210.9375,128,8388607,201.666666666667,1151938,27.6932149362423,
6976,211.9140625,128,8388607,201.666666666667,1626293,39.0969666755557,
7008,212.890625,128,8388607,201.666666666667,1626293,39.0969666755557,
7040,213.8671875,128,1471318,35.371283535713,1436049,34.5233976272819,
7072,214.84375,128,1471318,35.371283535713,1436049,34.5233976272819,
7104,215.8203125,128,-8388608,-201.66669070721,1375768,33.074209659204,
7136,216.796875,128,-8388608,-201.66669070721,1375768,33.074209659204,
7168,217.7734375,128,-8388608,-201.66669070721,1106707,26.6058371391897,
7200,218.75,128,-8388608,-201.66669070721,1106707,26.6058371391897,
7232,219.7265625,128,-8388608,-201.66669070721,1567850,37.6919652253745,
7264,220.703125,128,-8388608,-201.66669070721,1567850,37.6919652253745,
7296,221.6796875,128,3500773,84.1604835781038,1399983,33.6563514061393,
7328,222.65625,128,3500773,84.1604835781038,1399983,33.6563514061393,
7360,223.6328125,128,8388607,201.666666666667,698196,16.7850109082473,
7392,224.609375,128,8388607,201.666666666667,698196,16.7850109082473,
7424,225.5859375,128,8388607,201.666666666667,590811,14.2034172062179,
7456,226.5625,128,8388607,201.666666666667,590811,14.2034172062179,
7488,227.5390625,128,8388607,201.666666666667,537459,12.9208061600692,
7520,228.515625,128,8388607,201.666666666667,537459,12.9208061600692,
7552,229.4921875,128,5458893,131.234751490921,863135,20.7502340177974,
7584,230.46875,128,5458893,131.234751490921,863135,20.7502340177974,
7616,231.4453125,128,-6858531,-164.882808909751,1497499,36.0006889900393,
7648,232.421875,128,-6858531,-164.882808909751,1497499,36.0006889900393,
7680,233.3984375,128,-8388608,-201.66669070721,1492837,35.8886119789217,
7712,234.375,128,-8388608,-201.66669070721,1492837,35.8886119789217,
7744,235.3515625,128,-8388608,-201.66669070721,1573055,37.8170962513005,
7776,236.328125,128,-8388608,-201.66669070721,1573055,37.8170962513005,
7808,237.3046875,128,-1203424,-28.9309663292924,1421313,34.1691361867352,
7840,238.28125,128,-1203424,-28.9309663292924,1421313,34.1691361867352,
7872,239.2578125,128,8388607,201.666666666667,818636,19.6804538981661,
7904,240.234375,128,8388607,201.666666666667,818636,19.6804538981661,
7936,241.2109375,128,8388607,201.666666666667,853647,20.5221373465225,
7968,242.1875,128,8388607,201.666666666667,853647,20.5221373465225,
8000,243.1640625,128,8388607,201.666666666667,853647,20.5221373465225,
8032,244.140625,128,8388607,201.666666666667,1085482,26.095576615601,
8064,245.1171875,128,8388607,201.666666666667,1085482,26.095576615601,
8096,246.09375,128,8388607,201.666666666667,1386574,33.3339917660544,
8128,247.0703125,128,8388607,201.666666666667,1386574,33.3339917660544,
8160,248.046875,128,-2631456,-63.2616309239424,1670691,40.1643187003516,
8192,249.0234375,128,-2631456,-63.2616309239424,1670691,40.1643187003516,
8224,250,128,-8388608,-201.66669070721,1622851,39.014219126807,
8256,250.9765625,128,-8388608,-201.66669070721,1622851,39.014219126807,
8288,251.953125,128,-8388608,-201.66669070721,1473516,35.4241246490627,
8320,252.9296875,128,-8388608,-201.66669070721,1473516,35.4241246490627,
8352,253.90625,128,-5440766,-130.798968569315,1759621,42.3022441826953,
8384,254.8828125,128,-5440766,-130.798968569315,1759621,42.3022441826953,
8416,255.859375,128,7982743,191.909475752847,1351516,32.4911784121806,
8448,256.8359375,128,7982743,191.909475752847,1351516,32.4911784121806,
8480,257.8125,128,8388607,201.666666666667,1118770,26.8958382084972,
8512,258.7890625,128,8388607,201.666666666667,1118770,26.8958382084972,
8544,259.765625,128,8388607,201.666666666667,799979,19.2319294888094,
8576,260.7421875,128,8388607,201.666666666667,799979,19.2319294888094,
8608,261.71875,128,8388607,201.666666666667,1118185,26.8817744908859,
8640,262.6953125,128,8388607,201.666666666667,1118185,26.8817744908859,
8672,263.671875,128,1775920,42.6940809918341,772920,18.5814164377947,
8704,264.6484375,128,1775920,42.6940809918341,772920,18.5814164377947,
8736,265.625,128,-8388608,-201.66669070721,1055209,25.3677972596245,
8768,266.6015625,128,-8388608,-201.66669070721,1055209,25.3677972596245,
8800,267.578125,128,-8388608,-201.66669070721,1112453,26.7439740988383,
8832,268.5546875,128,-8388608,-201.66669070721,1112453,26.7439740988383,
8864,269.53125,128,-8388608,-201.66669070721,1214091,29.1874068006762,
8896,270.5078125,128,-8388608,-201.66669070721,1214091,29.1874068006762,
8928,271.484375,128,4008186,96.3589675854406,347874,8.36307982958315,
8960,272.4609375,128,4008186,96.3589675854406,347874,8.36307982958315,
8992,273.4375,128,8388607,201.666666666667,228048,5.48239773302051,
9024,274.4140625,128,8388607,201.666666666667,228048,5.48239773302051,
9056,275.390625,128,8388607,201.666666666667,616304,14.8162827670117,
9088,276.3671875,128,8388607,201.666666666667,616304,14.8162827670117,
9120,277.34375,128,8388607,201.666666666667,1249148,30.0301961140072,
9152,278.3203125,128,8388607,201.666666666667,1249148,30.0301961140072,
9184,279.296875,128,6065535,145.818754532189,1075633,25.8588013083301,
9216,280.2734375,128,6065535,145.818754532189,1075633,25.8588013083301,
9248,281.25,128,-6699496,-161.059521165632,1304323,31.3566330699086,
9280,282.2265625,128,-6699496,-161.059521165632,1304323,31.3566330699086,
9312,283.203125,128,-6699496,-161.059521165632,1304323,31.3566330699086,
9344,284.1796875,128,-8388608,-201.66669070721,1184674,28.4802061494437,
9376,285.15625,128,-8388608,-201.66669070721,1184674,28.4802061494437,
9408,286.1328125,128,-8388608,-201.66669070721,1295033,31.1332964261329,
9440,287.109375,128,-8388608,-201.66669070721,1295033,31.1332964261329,
9472,288.0859375,128,-113428,-2.7268707029268,1645420,39.5567901400872,
9504,289.0625,128,-113428,-2.7268707029268,1645420,39.5567901400872,
9536,290.0390625,128,8388607,201.666666666667,551576,13.2601865045452,
9568,291.015625,128,8388607,201.666666666667,551576,13.2601865045452,
9600,291.9921875,128,8388607,201.666666666667,-18306,-0.440086178789875,
9632,292.96875,128,8388607,201.666666666667,-18306,-0.440086178789875,
9664,293.9453125,128,8388607,201.666666666667,359133,8.63375230237869,
9696,294.921875,128,8388607,201.666666666667,359133,8.63375230237869,
9728,295.8984375,128,8260441,198.585486442107,971298,23.3505312622227,
9760,296.875,128,8260441,198.585486442107,971298,23.3505312622227,
9792,297.8515625,128,-3832584,-92.1374001666784,1142646,27.4698302113807,
9824,298.828125,128,-3832584,-92.1374001666784,1142646,27.4698302113807,
9856,299.8046875,128,-8388608,-201.66669070721,1281569,30.8096145561871,
9888,300.78125,128,-8388608,-201.66669070721,1281569,30.8096145561871,
9920,301.7578125,128,-8388608,-201.66669070721,1233394,29.6514614007626,
9952,302.734375,128,-8388608,-201.66669070721,1233394,29.6514614007626,
9984,303.7109375,128,-5311567,-127.692954463914,1554014,37.3593402734606,
10016,304.6875,128,-5311567,-127.692954463914,1554014,37.3593402734606,
10048,305.6640625,128,8054918,193.644601938478,1339618,32.2051440324558,
10080,306.640625,128,8054918,193.644601938478,1339618,32.2051440324558,
10112,307.6171875,128,8388607,201.666666666667,924850,22.23389612443,
10144,308.59375,128,8388607,201.666666666667,924850,22.23389612443,
10176,309.5703125,128,8388607,201.666666666667,764306,18.3743312010365,
10208,310.546875,128,8388607,201.666666666667,764306,18.3743312010365,
10240,311.5234375,128,8388607,201.666666666667,1534616,36.8930018217963,
10272,312.5,128,8388607,201.666666666667,1534616,36.8930018217963,
10304,313.4765625,128,2548281,61.2620587661336,1363038,32.7681735477654,
10336,314.453125,128,2548281,61.2620587661336,1363038,32.7681735477654,
10368,315.4296875,128,-8388608,-201.66669070721,1262347,30.3475072400777,
10400,316.40625,128,-8388608,-201.66669070721,1262347,30.3475072400777,
10432,317.3828125,128,-8388608,-201.66669070721,1248237,30.0082951794023,
10464,318.359375,128,-8388608,-201.66669070721,1248237,30.0082951794023,
10496,319.3359375,128,-8388608,-201.66669070721,1409747,33.8910832672616,
10528,320.3125,128,-8388608,-201.66669070721,1409747,33.8910832672616,
10560,321.2890625,128,4514690,108.535598739258,826427,19.8677537680968,
10592,322.265625,128,4514690,108.535598739258,826427,19.8677537680968,
10624,323.2421875,128,8388607,201.666666666667,77339,1.85927154929696,
10656,324.21875,128,8388607,201.666666666667,77339,1.85927154929696,
10688,325.1953125,128,8388607,201.666666666667,77339,1.85927154929696,
10720,326.171875,128,8388607,201.666666666667,444890,10.6953971420205,
10752,327.1484375,128,8388607,201.666666666667,444890,10.6953971420205,
10784,328.125,128,8388607,201.666666666667,454294,10.9214744076897,
10816,329.1015625,128,8388607,201.666666666667,454294,10.9214744076897,
10848,330.078125,128,6196003,148.955276086562,1118841,26.8975450870448,
10880,331.0546875,128,6196003,148.955276086562,1118841,26.8975450870448,
10912,332.03125,128,-6660243,-160.115857734186,1667646,40.0911152471441,
10944,333.0078125,128,-6660243,-160.115857734186,1667646,40.0911152471441,
10976,333.984375,128,-8388608,-201.66669070721,1017979,24.4727678465169,
11008,334.9609375,128,-8388608,-201.66669070721,1017979,24.4727678465169,
11040,335.9375,128,-8388608,-201.66669070721,840234,20.1996815442659,
11072,336.9140625,128,-8388608,-201.66669070721,840234,20.1996815442659,
11104,337.890625,128,421646,10.1365987622657,985162,23.6838293493385,
11136,338.8671875,128,421646,10.1365987622657,985162,23.6838293493385,
11168,339.84375,128,8388607,201.666666666667,657181,15.7989880401677,
11200,340.8203125,128,8388607,201.666666666667,657181,15.7989880401677,
11232,341.796875,128,8388607,201.666666666667,445233,10.7036430482439,
11264,342.7734375,128,8388607,201.666666666667,445233,10.7036430482439,
11296,343.75,128,8388607,201.666666666667,756463,18.1857812228737,
11328,344.7265625,128,8388607,201.666666666667,756463,18.1857812228737,
11360,345.703125,128,8388607,201.666666666667,877091,21.0857438348624,
11392,346.6796875,128,8388607,201.666666666667,877091,21.0857438348624,
11424,347.65625,128,-3101841,-74.5699417078426,1379004,33.1520048561102,
11456,348.6328125,128,-3101841,-74.5699417078426,1379004,33.1520048561102,
11488,349.609375,128,-8388608,-201.66669070721,1337541,32.1552118248,
11520,350.5859375,128,-8388608,-201.66669070721,1337541,32.1552118248,
11552,351.5625,128,-8388608,-201.66669070721,1100774,26.4632045980141,
11584,352.5390625,128,-8388608,-201.66669070721,1100774,26.4632045980141,
11616,353.515625,128,-4384696,-105.410472402232,1554398,37.3685718419439,
11648,354.4921875,128,-4384696,-105.410472402232,1554398,37.3685718419439,
11680,355.46875,128,8388607,201.666666666667,710564,17.082344343147,
11712,356.4453125,128,8388607,201.666666666667,710564,17.082344343147,
11744,357.421875,128,8388607,201.666666666667,288525,6.93629764751168,
11776,358.3984375,128,8388607,201.666666666667,288525,6.93629764751168,
11808,359.375,128,8388607,201.666666666667,609071,14.6423975200332,
11840,360.3515625,128,8388607,201.666666666667,609071,14.6423975200332,
11872,361.328125,128,8388607,201.666666666667,587590,14.1259826174556,
11904,362.3046875,128,8388607,201.666666666667,587590,14.1259826174556,
11936,363.28125,128,1934827,46.514291546459,1396679,33.5769214523142,
11968,364.2578125,128,1934827,46.514291546459,1396679,33.5769214523142,
12000,365.234375,128,1934827,46.514291546459,1396679,33.5769214523142,
12032,366.2109375,128,-8388608,-201.66669070721,1149368,27.6314307409244,
12064,367.1875,128,-8388608,-201.66669070721,1149368,27.6314307409244,
12096,368.1640625,128,-8388608,-201.66669070721,896904,21.5620591118406,
12128,369.140625,128,-8388608,-201.66669070721,896904,21.5620591118406,
12160,370.1171875,128,-8265982,-198.718695090456,1415116,34.0201569422273,
12192,371.09375,128,-8265982,-198.718695090456,1415116,34.0201569422273,
12224,372.0703125,128,5111593,122.885470932977,1410258,33.9033679846964,
12256,373.046875,128,5111593,122.885470932977,1410258,33.9033679846964,
12288,374.0234375,128,8388607,201.666666666667,228078,5.48311894930827,
12320,375,128,8388607,201.666666666667,228078,5.48311894930827,
12352,375.9765625,128,8388607,201.666666666667,362491,8.71448044552173,
12384,376.953125,128,8388607,201.666666666667,362491,8.71448044552173,
12416,377.9296875,128,8388607,201.666666666667,154483,3.7138551927235,
12448,378.90625,128,8388607,201.666666666667,154483,3.7138551927235,
12480,379.8828125,128,5648013,135.781298968947,611403,14.6984600661349,
12512,380.859375,128,5648013,135.781298968947,611403,14.6984600661349,
12544,381.8359375,128,-6976942,-167.729473638074,829933,19.9520399115928,
12576,382.8125,128,-6976942,-167.729473638074,829933,19.9520399115928,
12608,383.7890625,128,-8388608,-201.66669070721,1226011,29.4739700723453,
12640,384.765625,128,-8388608,-201.66669070721,1226011,29.4739700723453,
12672,385.7421875,128,-8388608,-201.66669070721,1098415,26.4064929572534,
12704,386.71875,128,-8388608,-201.66669070721,1098415,26.4064929572534,
12736,387.6953125,128,27259,0.65532115959976,864810,20.7905019271972,
12768,388.671875,128,27259,0.65532115959976,864810,20.7905019271972,
12800,389.6484375,128,8388607,201.666666666667,-248513,-5.97438744398603,
12832,390.625,128,8388607,201.666666666667,-248513,-5.97438744398603,
12864,391.6015625,128,8388607,201.666666666667,-59924,-1.4406054942535,
12896,392.578125,128,8388607,201.666666666667,-59924,-1.4406054942535,
12928,393.5546875,128,8388607,201.666666666667,169884,4.08410359431548,
12960,394.53125,128,8388607,201.666666666667,169884,4.08410359431548,
12992,395.5078125,128,8388607,201.666666666667,583201,14.0204686745567,
13024,396.484375,128,8388607,201.666666666667,583201,14.0204686745567,
13056,397.4609375,128,-3129905,-75.2446155044971,662423,15.9250085661819,
13088,398.4375,128,-3129905,-75.2446155044971,662423,15.9250085661819,
13120,399.4140625,128,-8388608,-201.66669070721,764125,18.369979862767,
13152,400.390625,128,-8388608,-201.66669070721,764125,18.369979862767,
13184,401.3671875,128,-8388608,-201.66669070721,952264,22.8929435681832,
13216,402.34375,128,-8388608,-201.66669070721,952264,22.8929435681832,
13248,403.3203125,128,-4572407,-109.923146755276,1181834,28.411931007536,
13280,404.296875,128,-4572407,-109.923146755276,1181834,28.411931007536,
13312,405.2734375,128,-4572407,-109.923146755276,1181834,28.411931007536,
13344,406.25,128,8388607,201.666666666667,251866,6.05499538441444,
13376,407.2265625,128,8388607,201.666666666667,251866,6.05499538441444,
13408,408.203125,128,8388607,201.666666666667,-127114,-3.05588957340196,
13440,409.1796875,128,8388607,201.666666666667,-127114,-3.05588957340196,
13472,410.15625,128,8388607,201.666666666667,41680,1.00200982912499,
13504,411.1328125,128,8388607,201.666666666667,41680,1.00200982912499,
13536,412.109375,128,8388607,201.666666666667,696922,16.7543832565606,
13568,413.0859375,128,8388607,201.666666666667,696922,16.7543832565606,
13600,414.0625,128,1052688,25.3071910509099,1152773,27.7132887895849,
13632,415.0390625,128,1052688,25.3071910509099,1152773,27.7132887895849,
13664,416.015625,128,-8388608,-201.66669070721,1478045,35.5330042679712,
13696,416.9921875,128,-8388608,-201.66669070721,1478045,35.5330042679712,
13728,417.96875,128,-8388608,-201.66669070721,1268971,30.5067517964147,
13760,418.9453125,128,-8388608,-201.66669070721,1268971,30.5067517964147,
13792,419.921875,128,-8248499,-198.298394278494,1153751,27.7368004405658,
13824,420.8984375,128,-8248499,-198.298394278494,1153751,27.7368004405658,
13856,421.875,128,4921538,118.316445547316,692242,16.6418735156703,
13888,422.8515625,128,4921538,118.316445547316,692242,16.6418735156703,
13920,423.828125,128,8388607,201.666666666667,97592,2.34616466516232,
13952,424.8046875,128,8388607,201.666666666667,97592,2.34616466516232,
13984,425.78125,128,8388607,201.666666666667,311938,7.49915887902088,
14016,426.7578125,128,8388607,201.666666666667,311938,7.49915887902088,
14048,427.734375,128,8388607,201.666666666667,310122,7.4555012530686,
14080,428.7109375,128,8388607,201.666666666667,310122,7.4555012530686,
14112,429.6875,128,5305003,127.535152340152,187273,4.50214459524289,
14144,430.6640625,128,5305003,127.535152340152,187273,4.50214459524289,
14176,431.640625,128,-7221631,-173.611930045914,891428,21.4304130987819,
14208,432.6171875,128,-7221631,-173.611930045914,891428,21.4304130987819,
14240,433.59375,128,-8388608,-201.66669070721,1302756,31.3189615391447,
14272,434.5703125,128,-8388608,-201.66669070721,1302756,31.3189615391447,
14304,435.546875,128,-8388608,-201.66669070721,1003871,24.1336038669273,
14336,436.5234375,128,-8388608,-201.66669070721,1003871,24.1336038669273,
14368,437.5,128,-123949,-2.9798012550435,644076,15.4839367251321,
14400,438.4765625,128,-123949,-2.9798012550435,644076,15.4839367251321,
14432,439.453125,128,8388607,201.666666666667,-308409,-7.41431980303762,
14464,440.4296875,128,8388607,201.666666666667,-308409,-7.41431980303762,
14496,441.40625,128,8388607,201.666666666667,-266241,-6.40057818896511,
14528,442.3828125,128,8388607,201.666666666667,-266241,-6.40057818896511,
14560,443.359375,128,8388607,201.666666666667,-10182,-0.244780808065034,
14592,444.3359375,128,8388607,201.666666666667,-10182,-0.244780808065034,
14624,445.3125,128,8388607,201.666666666667,197052,4.73723706450904,
14656,446.2890625,128,8388607,201.666666666667,197052,4.73723706450904,
14688,447.265625,128,8388607,201.666666666667,197052,4.73723706450904,
14720,448.2421875,128,-2856879,-68.6809222317841,850341,20.4426593116116,
14752,449.21875,128,-2856879,-68.6809222317841,850341,20.4426593116116,
14784,450.1953125,128,-8388608,-201.66669070721,981054,23.5850707990015,
14816,451.171875,128,-8388608,-201.66669070721,981054,23.5850707990015,
14848,452.1484375,128,-8388608,-201.66669070721,1166665,28.0472600119027,
14880,453.125,128,-8388608,-201.66669070721,1166665,28.0472600119027,
14912,454.1015625,128,-4613898,-110.920612921788,942968,22.66946268115,
14944,455.078125,128,-4613898,-110.920612921788,942968,22.66946268115,
14976,456.0546875,128,8388607,201.666666666667,-67671,-1.62684758029551,
15008,457.03125,128,8388607,201.666666666667,-67671,-1.62684758029551,
15040,458.0078125,128,8388607,201.666666666667,-470684,-11.3154989062348,
15072,458.984375,128,8388607,201.666666666667,-470684,-11.3154989062348,
15104,459.9609375,128,8388607,201.666666666667,-846707,-20.3552959786212,
15136,460.9375,128,8388607,201.666666666667,-846707,-20.3552959786212,
15168,461.9140625,128,8388607,201.666666666667,-300889,-7.23353492023964,
15200,462.890625,128,8388607,201.666666666667,-300889,-7.23353492023964,
15232,463.8671875,128,1393849,33.5088867158357,246938,5.93652358887874,
15264,464.84375,128,1393849,33.5088867158357,246938,5.93652358887874,
15296,465.8203125,128,-8388608,-201.66669070721,929201,22.3384965266979,
15328,466.796875,128,-8388608,-201.66669070721,929201,22.3384965266979,
15360,467.7734375,128,-8388608,-201.66669070721,918053,22.070492554167,
15392,468.75,128,-8388608,-201.66669070721,918053,22.070492554167,
15424,469.7265625,128,-8152504,-195.990622360383,1162947,27.9578772733065,
15456,470.703125,128,-8152504,-195.990622360383,1162947,27.9578772733065,
15488,471.6796875,128,5073344,121.965944206629,824746,19.8273416154394,
15520,472.65625,128,5073344,121.965944206629,824746,19.8273416154394,
15552,473.6328125,128,8388607,201.666666666667,-75824,-1.82285012676519,
15584,474.609375,128,8388607,201.666666666667,-75824,-1.82285012676519,
15616,475.5859375,128,8388607,201.666666666667,-11342,-0.27266783785834,
15648,476.5625,128,8388607,201.666666666667,-11342,-0.27266783785834,
15680,477.5390625,128,8388607,201.666666666667,357153,8.58615202738667,
15712,478.515625,128,8388607,201.666666666667,357153,8.58615202738667,
15744,479.4921875,128,5517223,132.637036359752,535919,12.8837837239643,
15776,480.46875,128,5517223,132.637036359752,535919,12.8837837239643,
15808,481.4453125,128,-7245879,-174.194865130766,983903,23.6535623057956,
15840,482.421875,128,-7245879,-174.194865130766,983903,23.6535623057956,
15872,483.3984375,128,-8388608,-201.66669070721,1306003,31.397021182023,
15904,484.375,128,-8388608,-201.66669070721,1306003,31.397021182023,
15936,485.3515625,128,-8388608,-201.66669070721,1074695,25.8362512790662,
15968,486.328125,128,-8388608,-201.66669070721,1074695,25.8362512790662,
16000,487.3046875,128,-8388608,-201.66669070721,1074695,25.8362512790662,
16032,488.28125,128,591723,14.2253421813658,635748,15.2837270836505,
16064,489.2578125,128,591723,14.2253421813658,635748,15.2837270836505,
16096,490.234375,128,8388607,201.666666666667,-182433,-4.38578836748461,
16128,491.2109375,128,8388607,201.666666666667,-182433,-4.38578836748461,
16160,492.1875,128,8388607,201.666666666667,77173,1.85528081917137,
16192,493.1640625,128,8388607,201.666666666667,77173,1.85528081917137,
16224,494.140625,128,8388607,201.666666666667,-25689,-0.617577507207096,
16256,495.1171875,128,8388607,201.666666666667,-25689,-0.617577507207096,
16288,496.09375,128,8388607,201.666666666667,146573,3.52369449818466,
16320,497.0703125,128,8388607,201.666666666667,146573,3.52369449818466,
16352,498.046875,128,-3085900,-74.1867114130709,791685,19.0325372257873,
16384,499.0234375,128,-3085900,-74.1867114130709,791685,19.0325372257873,
16416,500,128,-8388608,-201.66669070721,823114,19.7881074493854,
16448,500.9765625,128,-8388608,-201.66669070721,823114,19.7881074493854,
16480,501.953125,128,-8388608,-201.66669070721,1172488,28.1872480933565,
16512,502.9296875,128,-8388608,-201.66669070721,1172488,28.1872480933565,
16544,503.90625,128,-3800642,-91.3694971445597,1013359,24.3617005382022,
16576,504.8828125,128,-3800642,-91.3694971445597,1013359,24.3617005382022,
16608,505.859375,128,8388607,201.666666666667,-87312,-2.09902788389061,
16640,506.8359375,128,8388607,201.666666666667,-87312,-2.09902788389061,
16672,507.8125,128,8388607,201.666666666667,-355258,-8.54059519854329,
16704,508.7890625,128,8388607,201.666666666667,-355258,-8.54059519854329,
16736,509.765625,128,8388607,201.666666666667,-355051,-8.53561880615776,
16768,510.7421875,128,8388607,201.666666666667,-355051,-8.53561880615776,
16800,511.71875,128,8388607,201.666666666667,-286441,-6.88619715605543,
16832,512.6953125,128,8388607,201.666666666667,-286441,-6.88619715605543,
16864,513.671875,128,1278006,30.7239581017444,-149087,-3.58413242309877,
16896,514.6484375,128,1278006,30.7239581017444,-149087,-3.58413242309877,
16928,515.625,128,-8388608,-201.66669070721,830802,19.9729311433948,
16960,516.6015625,128,-8388608,-201.66669070721,830802,19.9729311433948,
16992,517.578125,128,-8388608,-201.66669070721,1068441,25.6859017236116,
17024,518.5546875,128,-8388608,-201.66669070721,1068441,25.6859017236116,
17056,519.53125,128,-7916821,-190.324675082128,1372126,32.9866540018702,
17088,520.5078125,128,-7916821,-190.324675082128,1372126,32.9866540018702,
17120,521.484375,128,5488249,131.940485669035,503595,12.1066972144481,
17152,522.4609375,128,5488249,131.940485669035,503595,12.1066972144481,
17184,523.4375,128,8388607,201.666666666667,-446332,-10.7300636049188,
17216,524.4140625,128,8388607,201.666666666667,-446332,-10.7300636049188,
17248,525.390625,128,8388607,201.666666666667,8280,0.199055695421183,
17280,526.3671875,128,8388607,201.666666666667,8280,0.199055695421183,
17312,527.34375,128,8388607,201.666666666667,8280,0.199055695421183,
17344,528.3203125,128,8388607,201.666666666667,-260439,-6.26109495891273,
17376,529.296875,128,8388607,201.666666666667,-260439,-6.26109495891273,
17408,530.2734375,128,5594389,134.492148895122,523498,12.5851761402896,
17440,531.25,128,5594389,134.492148895122,523498,12.5851761402896,
17472,532.2265625,128,-7240949,-174.076345254145,1127256,27.0998462557609,
17504,533.203125,128,-7240949,-174.076345254145,1127256,27.0998462557609,
17536,534.1796875,128,-8388608,-201.66669070721,1029219,24.7429835489969,
17568,535.15625,128,-8388608,-201.66669070721,1029219,24.7429835489969,
17600,536.1328125,128,-8388608,-201.66669070721,895989,21.540062015064,
17632,537.109375,128,-8388608,-201.66669070721,895989,21.540062015064,
17664,538.0859375,128,1118938,26.8998770197086,569714,13.6962338721236,
17696,539.0625,128,1118938,26.8998770197086,569714,13.6962338721236,
17728,540.0390625,128,8388607,201.666666666667,-476809,-11.462747231652,
17760,541.015625,128,8388607,201.666666666667,-476809,-11.462747231652,
17792,541.9921875,128,8388607,201.666666666667,-603975,-14.5198869132861,
17824,542.96875,128,8388607,201.666666666667,-603975,-14.5198869132861,
17856,543.9453125,128,8388607,201.666666666667,-416432,-10.0112513714534,
17888,544.921875,128,8388607,201.666666666667,-416432,-10.0112513714534,
17920,545.8984375,128,8388607,201.666666666667,328671,7.90142928378931,
17952,546.875,128,8388607,201.666666666667,328671,7.90142928378931,
17984,547.8515625,128,-3468406,-83.3823633252418,662535,15.9277011069895,
18016,548.828125,128,-3468406,-83.3823633252418,662535,15.9277011069895,
18048,549.8046875,128,-8388608,-201.66669070721,1003293,24.1197084331165,
18080,550.78125,128,-8388608,-201.66669070721,1003293,24.1197084331165,
18112,551.7578125,128,-8388608,-201.66669070721,1152198,27.6994654774029,
18144,552.734375,128,-8388608,-201.66669070721,1152198,27.6994654774029,
18176,553.7109375,128,-3447463,-82.878882234758,1199854,28.8451415910492,
18208,554.6875,128,-3447463,-82.878882234758,1199854,28.8451415910492,
18240,555.6640625,128,8388607,201.666666666667,-155958,-3.74931499353826,
18272,556.640625,128,8388607,201.666666666667,-155958,-3.74931499353826,
18304,557.6171875,128,8388607,201.666666666667,-597544,-14.3652821817337,
18336,558.59375,128,8388607,201.666666666667,-597544,-14.3652821817337,
18368,559.5703125,128,8388607,201.666666666667,-850150,-20.4380675679128,
18400,560.546875,128,8388607,201.666666666667,-850150,-20.4380675679128,
18432,561.5234375,128,8388607,201.666666666667,-809247,-19.4547372406408,
18464,562.5,128,8388607,201.666666666667,-809247,-19.4547372406408,
18496,563.4765625,128,1737845,41.7787373199547,-312975,-7.52408892203437,
18528,564.453125,128,1737845,41.7787373199547,-312975,-7.52408892203437,
18560,565.4296875,128,-8388608,-201.66669070721,562765,13.529176139336,
18592,566.40625,128,-8388608,-201.66669070721,562765,13.529176139336,
18624,567.3828125,128,-8388608,-201.66669070721,1028766,24.7320931830517,
18656,568.359375,128,-8388608,-201.66669070721,1028766,24.7320931830517,
18688,569.3359375,128,-8388608,-201.66669070721,1028766,24.7320931830517,
18720,570.3125,128,-8020992,-192.829002479196,1008564,24.2464261348756,
18752,571.2890625,128,-8020992,-192.829002479196,1008564,24.2464261348756,
18784,572.265625,128,5341414,128.410492548604,-477233,-11.4729404218523,
18816,573.2421875,128,5341414,128.410492548604,-477233,-11.4729404218523,
18848,574.21875,128,8388607,201.666666666667,-1027481,-24.7012010853928,
18880,575.1953125,128,8388607,201.666666666667,-1027481,-24.7012010853928,
18912,576.171875,128,8388607,201.666666666667,-531456,-12.7764907808889,
18944,577.1484375,128,8388607,201.666666666667,-531456,-12.7764907808889,
18976,578.125,128,8388607,201.666666666667,-95982,-2.30745939105265,
19008,579.1015625,128,8388607,201.666666666667,-95982,-2.30745939105265,
19040,580.078125,128,5377216,129.271192066414,264939,6.36927740207641,
19072,581.0546875,128,5377216,129.271192066414,264939,6.36927740207641,
19104,582.03125,128,-7217600,-173.515022617383,837622,20.1368876461451,
19136,583.0078125,128,-7217600,-173.515022617383,837622,20.1368876461451,
19168,583.984375,128,-8388608,-201.66669070721,875000,21.0354750596056,
19200,584.9609375,128,-8388608,-201.66669070721,875000,21.0354750596056,
19232,585.9375,128,-8388608,-201.66669070721,526609,12.6599662693301,
19264,586.9140625,128,-8388608,-201.66669070721,526609,12.6599662693301,
19296,587.890625,128,1125984,27.06926668516,426040,10.2422329078793,
19328,588.8671875,128,1125984,27.06926668516,426040,10.2422329078793,
19360,589.84375,128,8388607,201.666666666667,-573807,-13.7946318143167,
19392,590.8203125,128,8388607,201.666666666667,-573807,-13.7946318143167,
19424,591.796875,128,8388607,201.666666666667,-10317,-0.248026281359945,
19456,592.7734375,128,8388607,201.666666666667,-10317,-0.248026281359945,
19488,593.75,128,8388607,201.666666666667,-115041,-2.76564809866525,
19520,594.7265625,128,8388607,201.666666666667,-115041,-2.76564809866525,
19552,595.703125,128,8352466,200.797817404805,533802,12.8328898945916,
19584,596.6796875,128,8352466,200.797817404805,533802,12.8328898945916,
19616,597.65625,128,-3706067,-89.0958627974029,531769,12.7840154708245,
19648,598.6328125,128,-3706067,-89.0958627974029,531769,12.7840154708245,
19680,599.609375,128,-8388608,-201.66669070721,716618,17.2278857900165,
19712,600.5859375,128,-8388608,-201.66669070721,716618,17.2278857900165,
19744,601.5625,128,-8388608,-201.66669070721,1097834,26.3925254018138,
19776,602.5390625,128,-8388608,-201.66669070721,1097834,26.3925254018138,
19808,603.515625,128,-4279069,-102.871141974665,967303,23.2544892932363,
19840,604.4921875,128,-4279069,-102.871141974665,967303,23.2544892932363,
19872,605.46875,128,8388607,201.666666666667,-85102,-2.04589828402578,
19904,606.4453125,128,8388607,201.666666666667,-85102,-2.04589828402578,
19936,607.421875,128,8388607,201.666666666667,-645142,-15.5095639438904,
19968,608.3984375,128,8388607,201.666666666667,-645142,-15.5095639438904,
20000,609.375,128,8388607,201.666666666667,-645142,-15.5095639438904,
20032,610.3515625,128,8388607,201.666666666667,-520867,-12.5219254718533,
20064,611.328125,128,8388607,201.666666666667,-520867,-12.5219254718533,
20096,612.3046875,128,8388607,201.666666666667,-230881,-5.55050459112778,
20128,613.28125,128,8388607,201.666666666667,-230881,-5.55050459112778,
20160,614.2578125,128,1266328,30.4432126414632,37357,0.898082562059072,
20192,615.234375,128,1266328,30.4432126414632,37357,0.898082562059072,
20224,616.2109375,128,-8388608,-201.66669070721,809410,19.4586558491376,
20256,617.1875,128,-8388608,-201.66669070721,809410,19.4586558491376,
20288,618.1640625,128,-8388608,-201.66669070721,1021846,24.5657326260089,
20320,619.140625,128,-8388608,-201.66669070721,1021846,24.5657326260089,
20352,620.1171875,128,-7656459,-184.065431245021,1158237,27.8446463161285,
20384,621.09375,128,-7656459,-184.065431245021,1158237,27.8446463161285,
20416,622.0703125,128,5959628,143.272692752603,283935,6.82595155548472,
20448,623.046875,128,5959628,143.272692752603,283935,6.82595155548472,
20480,624.0234375,128,8388607,201.666666666667,-365446,-8.78552024986588,
20512,625,128,8388607,201.666666666667,-365446,-8.78552024986588,
20544,625.9765625,128,8388607,201.666666666667,-615841,-14.8051519956373,
20576,626.953125,128,8388607,201.666666666667,-615841,-14.8051519956373,
20608,627.9296875,128,8388607,201.666666666667,-335713,-8.07072278706902,
20640,628.90625,128,8388607,201.666666666667,-335713,-8.07072278706902,
20672,629.8828125,128,5160656,124.064972090519,-93074,-2.23754949222598,
20704,630.859375,128,5160656,124.064972090519,-93074,-2.23754949222598,
20736,631.8359375,128,-7474576,-179.692865176145,1048550,25.2077112842851,
20768,632.8125,128,-7474576,-179.692865176145,1048550,25.2077112842851,
20800,633.7890625,128,-8388608,-201.66669070721,775497,18.6433689169131,
20832,634.765625,128,-8388608,-201.66669070721,775497,18.6433689169131,
20864,635.7421875,128,-8388608,-201.66669070721,642919,15.4561218169675,
20896,636.71875,128,-8388608,-201.66669070721,642919,15.4561218169675,
20928,637.6953125,128,936860,22.5226230449625,36182,0.869834924121887,
20960,638.671875,128,936860,22.5226230449625,36182,0.869834924121887,
20992,639.6484375,128,8388607,201.666666666667,-978427,-23.5219162927369,
21024,640.625,128,8388607,201.666666666667,-978427,-23.5219162927369,
21056,641.6015625,128,8388607,201.666666666667,-667172,-16.039177104534,
21088,642.578125,128,8388607,201.666666666667,-667172,-16.039177104534,
21120,643.5546875,128,8388607,201.666666666667,-216405,-5.20249369174167,
21152,644.53125,128,8388607,201.666666666667,-216405,-5.20249369174167,
21184,645.5078125,128,8135104,195.572316913484,40466,0.972824610013717,
21216,646.484375,128,8135104,195.572316913484,40466,0.972824610013717,
21248,647.4609375,128,-3955492,-95.0921752165367,792430,19.0504474302666,
21280,648.4375,128,-3955492,-95.0921752165367,792430,19.0504474302666,
21312,649.4140625,128,-3955492,-95.0921752165367,792430,19.0504474302666,
21344,650.390625,128,-8388608,-201.66669070721,1119595,26.9156716564105,
21376,651.3671875,128,-8388608,-201.66669070721,1119595,26.9156716564105,
21408,652.34375,128,-8388608,-201.66669070721,1165134,28.0104539406841,
21440,653.3203125,128,-8388608,-201.66669070721,1165134,28.0104539406841,
21472,654.296875,128,-4311943,-103.66145078279,844943,20.312888460901,
21504,655.2734375,128,-4311943,-103.66145078279,844943,20.312888460901,
21536,656.25,128,8388607,201.666666666667,-454854,-10.9349371117278,
21568,657.2265625,128,8388607,201.666666666667,-454854,-10.9349371117278,
21600,658.203125,128,8388607,201.666666666667,-889671,-21.3881738648622,
21632,659.1796875,128,8388607,201.666666666667,-889671,-21.3881738648622,
21664,660.15625,128,8388607,201.666666666667,-967969,-23.2705002948245,
21696,661.1328125,128,8388607,201.666666666667,-967969,-23.2705002948245,
21728,662.109375,128,8388607,201.666666666667,-315529,-7.5854884686655,
21760,663.0859375,128,8388607,201.666666666667,-315529,-7.5854884686655,
21792,664.0625,128,853980,20.5301428473166,383680,9.22387550956514,
21824,665.0390625,128,853980,20.5301428473166,383680,9.22387550956514,
21856,666.015625,128,-8388608,-201.66669070721,1408206,33.8540367906137,
21888,666.9921875,128,-8388608,-201.66669070721,1408206,33.8540367906137,
21920,667.96875,128,-8388608,-201.66669070721,1412928,33.9675562343068,
21952,668.9453125,128,-8388608,-201.66669070721,1412928,33.9675562343068,
21984,669.921875,128,-7919351,-190.385497655729,834305,20.057145165262,
22016,670.8984375,128,-7919351,-190.385497655729,834305,20.057145165262,
22048,671.875,128,5286583,127.092325539469,-498661,-11.9880811756549,
22080,672.8515625,128,5286583,127.092325539469,-498661,-11.9880811756549,
22112,673.828125,128,8388607,201.666666666667,-1280104,-30.7743951608016,
22144,674.8046875,128,8388607,201.666666666667,-1280104,-30.7743951608016,
22176,675.78125,128,8388607,201.666666666667,-664394,-15.9723924762876,
22208,676.7578125,128,8388607,201.666666666667,-664394,-15.9723924762876,
22240,677.734375,128,8388607,201.666666666667,-197709,-4.75303170121094,
22272,678.7109375,128,8388607,201.666666666667,-197709,-4.75303170121094,
22304,679.6875,128,5333622,128.22316863813,-9559,-0.229803549822595,
22336,680.6640625,128,5333622,128.22316863813,-9559,-0.229803549822595,
22368,681.640625,128,-7344242,-176.559565054524,482630,11.60268723202,
22400,682.6171875,128,-7344242,-176.559565054524,482630,11.60268723202,
22432,683.59375,128,-8388608,-201.66669070721,787938,18.9424573114463,
22464,684.5703125,128,-8388608,-201.66669070721,787938,18.9424573114463,
22496,685.546875,128,-8388608,-201.66669070721,710929,17.0911191413147,
22528,686.5234375,128,-8388608,-201.66669070721,710929,17.0911191413147,
22560,687.5,128,748990,18.0061262455932,363466,8.73791997487386,
22592,688.4765625,128,748990,18.0061262455932,363466,8.73791997487386,
22624,689.453125,128,8388607,201.666666666667,-789210,-18.9730368820473,
22656,690.4296875,128,8388607,201.666666666667,-789210,-18.9730368820473,
22688,691.40625,128,8388607,201.666666666667,-789210,-18.9730368820473,
22720,692.3828125,128,8388607,201.666666666667,-1176691,-28.2882904952713,
22752,693.359375,128,8388607,201.666666666667,-1176691,-28.2882904952713,
22784,694.3359375,128,8388607,201.666666666667,-827735,-19.8991987982431,
22816,695.3125,128,8388607,201.666666666667,-827735,-19.8991987982431,
22848,696.2890625,128,8254606,198.445209874138,-12555,-0.301829016426684,
22880,697.265625,128,8254606,198.445209874138,-12555,-0.301829016426684,
22912,698.2421875,128,-3891330,-93.549685901366,330078,7.93525432768516,
22944,699.21875,128,-3891330,-93.549685901366,330078,7.93525432768516,
22976,700.1953125,128,-8388608,-201.66669070721,876555,21.0728581038544,
23008,701.171875,128,-8388608,-201.66669070721,876555,21.0728581038544,
23040,702.1484375,128,-8388608,-201.66669070721,661462,15.9019056044307,
23072,703.125,128,-8388608,-201.66669070721,661462,15.9019056044307,
23104,704.1015625,128,-3297893,-79.2831382294263,423159,10.1729721037116,
23136,705.078125,128,-3297893,-79.2831382294263,423159,10.1729721037116,
23168,706.0546875,128,8388607,201.666666666667,-449349,-10.8025939229243,
23200,707.03125,128,8388607,201.666666666667,-449349,-10.8025939229243,
23232,708.0078125,128,8388607,201.666666666667,-935276,-22.4845428249688,
23264,708.984375,128,8388607,201.666666666667,-935276,-22.4845428249688,
23296,709.9609375,128,8388607,201.666666666667,-1181498,-28.4038533851131,
23328,710.9375,128,8388607,201.666666666667,-1181498,-28.4038533851131,
23360,711.9140625,128,8388607,201.666666666667,-278241,-6.68906470406827,
23392,712.890625,128,8388607,201.666666666667,-278241,-6.68906470406827,
23424,713.8671875,128,701958,16.8754514307322,216642,5.20819130041496,
23456,714.84375,128,701958,16.8754514307322,216642,5.20819130041496,
23488,715.8203125,128,-8388608,-201.66669070721,575411,13.8331928451689,
23520,716.796875,128,-8388608,-201.66669070721,575411,13.8331928451689,
23552,717.7734375,128,-8388608,-201.66669070721,596999,14.3521800858394,
23584,718.75,128,-8388608,-201.66669070721,596999,14.3521800858394,
23616,719.7265625,128,-7423837,-178.47307206866,-29925,-0.719413247038513,
23648,720.703125,128,-7423837,-178.47307206866,-29925,-0.719413247038513,
23680,721.6796875,128,6126562,147.285876745289,-479259,-11.5216465618189,
23712,722.65625,128,6126562,147.285876745289,-479259,-11.5216465618189,
23744,723.6328125,128,8388607,201.666666666667,-1087572,-26.1458213503148,
23776,724.609375,128,8388607,201.666666666667,-1087572,-26.1458213503148,
23808,725.5859375,128,8388607,201.666666666667,-728562,-17.5150260347159,
23840,726.5625,128,8388607,201.666666666667,-728562,-17.5150260347159,
23872,727.5390625,128,8388607,201.666666666667,-83477,-2.00683240177223,
23904,728.515625,128,8388607,201.666666666667,-83477,-2.00683240177223,
23936,729.4921875,128,4851864,116.641444759541,-56446,-1.35699248595943,
23968,730.46875,128,4851864,116.641444759541,-56446,-1.35699248595943,
24000,731.4453125,128,4851864,116.641444759541,-56446,-1.35699248595943,
24032,732.421875,128,-7510744,-180.562363532666,544331,13.0860127710517,
24064,733.3984375,128,-7510744,-180.562363532666,544331,13.0860127710517,
24096,734.375,128,-8388608,-201.66669070721,706425,16.9828405359793,
24128,735.3515625,128,-8388608,-201.66669070721,706425,16.9828405359793,
24160,736.328125,128,-8388608,-201.66669070721,869519,20.9037088438323,
24192,737.3046875,128,-8388608,-201.66669070721,869519,20.9037088438323,
24224,738.28125,128,1628620,39.1529090189428,257193,6.18305935657732,
24256,739.2578125,128,1628620,39.1529090189428,257193,6.18305935657732,
24288,740.234375,128,8388607,201.666666666667,-742268,-17.8445257160496,
24320,741.2109375,128,8388607,201.666666666667,-742268,-17.8445257160496,
24352,742.1875,128,8388607,201.666666666667,-916314,-22.02868605002,
24384,743.1640625,128,8388607,201.666666666667,-916314,-22.02868605002,
24416,744.140625,128,8388607,201.666666666667,-687837,-16.5359749240845,
24448,745.1171875,128,8388607,201.666666666667,-687837,-16.5359749240845,
24480,746.09375,128,8104126,194.827588974745,-319979,-7.69246888468292,
24512,747.0703125,128,8104126,194.827588974745,-319979,-7.69246888468292,
24544,748.046875,128,-4225992,-101.595142077821,27508,0.661307254788151,
24576,749.0234375,128,-4225992,-101.595142077821,27508,0.661307254788151,
24608,750,128,-8388608,-201.66669070721,505795,12.1595864088837,
24640,750.9765625,128,-8388608,-201.66669070721,505795,12.1595864088837,
24672,751.953125,128,-8388608,-201.66669070721,997027,23.9690703911468,
24704,752.9296875,128,-8388608,-201.66669070721,997027,23.9690703911468,
24736,753.90625,128,-2986279,-71.7917684863132,310199,7.45735237487384,
24768,754.8828125,128,-2986279,-71.7917684863132,310199,7.45735237487384,
24800,755.859375,128,8388607,201.666666666667,-613543,-14.749906827995,
24832,756.8359375,128,8388607,201.666666666667,-613543,-14.749906827995,
24864,757.8125,128,8388607,201.666666666667,-960404,-23.0886335875949,
24896,758.7890625,128,8388607,201.666666666667,-960404,-23.0886335875949,
24928,759.765625,128,8388607,201.666666666667,-781435,-18.7861216608034,
24960,760.7421875,128,8388607,201.666666666667,-781435,-18.7861216608034,
24992,761.71875,128,8388607,201.666666666667,-405225,-9.74182900688994,
25024,762.6953125,128,8388607,201.666666666667,-405225,-9.74182900688994,
25056,763.671875,128,396998,9.5440474602438,109346,2.62873720670587,
25088,764.6484375,128,396998,9.5440474602438,109346,2.62873720670587,
25120,765.625,128,-8388608,-201.66669070721,544482,13.0896428930334,
25152,766.6015625,128,-8388608,-201.66669070721,544482,13.0896428930334,
25184,767.578125,128,-8388608,-201.66669070721,477748,11.4853213014588,
25216,768.5546875,128,-8388608,-201.66669070721,477748,11.4853213014588,
25248,769.53125,128,-7026099,-168.911234606652,272534,6.55186532559379,
25280,770.5078125,128,-7026099,-168.911234606652,272534,6.55186532559379,
25312,771.484375,128,-7026099,-168.911234606652,272534,6.55186532559379,
25344,772.4609375,128,6521419,156.77845340313,-845586,-20.3283465300019,
25376,773.4375,128,6521419,156.77845340313,-845586,-20.3283465300019,
25408,774.4140625,128,8388607,201.666666666667,-1453825,-34.9507423183213,
25440,775.390625,128,8388607,201.666666666667,-1453825,-34.9507423183213,
25472,776.3671875,128,8388607,201.666666666667,-985009,-23.680151146271,
25504,777.34375,128,8388607,201.666666666667,-985009,-23.680151146271,
25536,778.3203125,128,8388607,201.666666666667,-294701,-7.08477204061811,
25568,779.296875,128,8388607,201.666666666667,-294701,-7.08477204061811,
25600,780.2734375,128,5432307,130.59560961671,-219513,-5.27721169915339,
25632,781.25,128,5432307,130.59560961671,-219513,-5.27721169915339,
25664,782.2265625,128,-7323095,-176.051179693283,210315,5.05608678532681,
25696,783.203125,128,-7323095,-176.051179693283,210315,5.05608678532681,
25728,784.1796875,128,-8388608,-201.66669070721,847957,20.3853466572777,
25760,785.15625,128,-8388608,-201.66669070721,847957,20.3853466572777,
25792,786.1328125,128,-8388608,-201.66669070721,570561,13.7165962119813,
25824,787.109375,128,-8388608,-201.66669070721,570561,13.7165962119813,
25856,788.0859375,128,2164904,52.0454675410749,-400734,-9.63386292861258,
25888,789.0625,128,2164904,52.0454675410749,-400734,-9.63386292861258,
25920,790.0390625,128,8388607,201.666666666667,-1333346,-32.0543617472285,
25952,791.015625,128,8388607,201.666666666667,-1333346,-32.0543617472285,
25984,791.9921875,128,8388607,201.666666666667,-940123,-22.6010673365276,
26016,792.96875,128,8388607,201.666666666667,-940123,-22.6010673365276,
26048,793.9453125,128,8388607,201.666666666667,-1144147,-27.5059150663116,
26080,794.921875,128,8388607,201.666666666667,-1144147,-27.5059150663116,
26112,795.8984375,128,8388607,201.666666666667,-611134,-14.691993160088,
26144,796.875,128,8388607,201.666666666667,-611134,-14.691993160088,
26176,797.8515625,128,-3458449,-83.142991639335,202428,4.86647902327526,
26208,798.828125,128,-3458449,-83.142991639335,202428,4.86647902327526,
26240,799.8046875,128,-8388608,-201.66669070721,442877,10.647003529112,
26272,800.78125,128,-8388608,-201.66669070721,442877,10.647003529112,
26304,801.7578125,128,-8388608,-201.66669070721,757654,18.2144135094977,
26336,802.734375,128,-8388608,-201.66669070721,757654,18.2144135094977,
26368,803.7109375,128,-2917187,-70.1307592945209,232730,5.5949555549966,
26400,804.6875,128,-2917187,-70.1307592945209,232730,5.5949555549966,
26432,805.6640625,128,8388607,201.666666666667,-779904,-18.7493155895848,
26464,806.640625,128,8388607,201.666666666667,-779904,-18.7493155895848,
26496,807.6171875,128,8388607,201.666666666667,-1057611,-25.425542643731,
26528,808.59375,128,8388607,201.666666666667,-1057611,-25.425542643731,
26560,809.5703125,128,8388607,201.666666666667,-1083781,-26.0546836520851,
26592,810.546875,128,8388607,201.666666666667,-1083781,-26.0546836520851,
26624,811.5234375,128,8388607,201.666666666667,-981876,-23.6048321252861,
26656,812.5,128,8388607,201.666666666667,-981876,-23.6048321252861,
26688,813.4765625,128,8388607,201.666666666667,-981876,-23.6048321252861,
26720,814.453125,128,1612280,38.760086547544,-173062,-4.16050443973197,
26752,815.4296875,128,1612280,38.760086547544,-173062,-4.16050443973197,
26784,816.40625,128,-8388608,-201.66669070721,293869,7.06477030890429,
26816,817.3828125,128,-8388608,-201.66669070721,293869,7.06477030890429,
26848,818.359375,128,-8388608,-201.66669070721,592631,14.2471709943419,
26880,819.3359375,128,-8388608,-201.66669070721,592631,14.2471709943419,
26912,820.3125,128,-6732906,-161.862715704765,542201,13.0348064146208,
26944,821.2890625,128,-6732906,-161.862715704765,542201,13.0348064146208,
26976,822.265625,128,6841939,164.483928221535,-353429,-8.49662504553299,
27008,823.2421875,128,6841939,164.483928221535,-353429,-8.49662504553299,
27040,824.21875,128,8388607,201.666666666667,-1202531,-28.9094981244602,
27072,825.1953125,128,8388607,201.666666666667,-1202531,-28.9094981244602,
27104,826.171875,128,8388607,201.666666666667,-732672,-17.6138326661387,
27136,827.1484375,128,8388607,201.666666666667,-732672,-17.6138326661387,
27168,828.125,128,8388607,201.666666666667,-646681,-15.5465623394524,
27200,829.1015625,128,8388607,201.666666666667,-646681,-15.5465623394524,
27232,830.078125,128,6106437,146.802060818918,-548149,-13.1777995639403,
27264,831.0546875,128,6106437,146.802060818918,-548149,-13.1777995639403,
27296,832.03125,128,-6885922,-165.541303421017,-135968,-3.26874454046224,
27328,833.0078125,128,-6885922,-165.541303421017,-135968,-3.26874454046224,
27360,833.984375,128,-8388608,-201.66669070721,258277,6.20911930510831,
27392,834.9609375,128,-8388608,-201.66669070721,258277,6.20911930510831,
27424,835.9375,128,-8388608,-201.66669070721,661256,15.8969532525881,
27456,836.9140625,128,-8388608,-201.66669070721,661256,15.8969532525881,
27488,837.890625,128,3040341,73.0914483179388,124704,2.99795186495207,
27520,838.8671875,128,3040341,73.0914483179388,124704,2.99795186495207,
27552,839.84375,128,8388607,201.666666666667,-866603,-20.8336066206622,
27584,840.8203125,128,8388607,201.666666666667,-866603,-20.8336066206622,
27616,841.796875,128,8388607,201.666666666667,-646759,-15.5484375018006,
27648,842.7734375,128,8388607,201.666666666667,-646759,-15.5484375018006,
27680,843.75,128,8388607,201.666666666667,-586629,-14.1028796557045,
27712,844.7265625,128,8388607,201.666666666667,-586629,-14.1028796557045,
27744,845.703125,128,8388607,201.666666666667,-519226,-12.4824749409129,
27776,846.6796875,128,8388607,201.666666666667,-519226,-12.4824749409129,
27808,847.65625,128,-3621651,-87.0664563258238,-31064,-0.746795425430388,
27840,848.6328125,128,-3621651,-87.0664563258238,-31064,-0.746795425430388,
27872,849.609375,128,-8388608,-201.66669070721,546649,13.1417387495524,
27904,850.5859375,128,-8388608,-201.66669070721,546649,13.1417387495524,
27936,851.5625,128,-8388608,-201.66669070721,773898,18.6049280887756,
27968,852.5390625,128,-8388608,-201.66669070721,773898,18.6049280887756,
28000,853.515625,128,-8388608,-201.66669070721,773898,18.6049280887756,
28032,854.4921875,128,-1687076,-40.558222996182,309344,7.43679771067274,
28064,855.46875,128,-1687076,-40.558222996182,309344,7.43679771067274,
28096,856.4453125,128,8388607,201.666666666667,-1039238,-24.9838457485651,
28128,857.421875,128,8388607,201.666666666667,-1039238,-24.9838457485651,
28160,858.3984375,128,8388607,201.666666666667,-1026734,-24.6832427998276,
28192,859.375,128,8388607,201.666666666667,-1026734,-24.6832427998276,
28224,860.3515625,128,8388607,201.666666666667,-683394,-16.4291627918676,
28256,861.328125,128,8388607,201.666666666667,-683394,-16.4291627918676,
28288,862.3046875,128,8388607,201.666666666667,-861051,-20.7001335263411,
28320,863.28125,128,8388607,201.666666666667,-861051,-20.7001335263411,
28352,864.2578125,128,800076,19.2342614214732,-286177,-6.87985045272316,
28384,865.234375,128,800076,19.2342614214732,-286177,-6.87985045272316,
28416,866.2109375,128,-8388608,-201.66669070721,643336,15.4661467233674,
28448,867.1875,128,-8388608,-201.66669070721,643336,15.4661467233674,
28480,868.1640625,128,-8388608,-201.66669070721,544633,13.0932730150151,
28512,869.140625,128,-8388608,-201.66669070721,544633,13.0932730150151,
28544,870.1171875,128,-6005629,-144.378581767708,224508,5.39729421106508,
28576,871.09375,128,-6005629,-144.378581767708,224508,5.39729421106508,
28608,872.0703125,128,7616213,183.097895554451,-625281,-15.0320947208517,
28640,873.046875,128,7616213,183.097895554451,-625281,-15.0320947208517,
28672,874.0234375,128,8388607,201.666666666667,-1358626,-32.6621066723792,
28704,875,128,8388607,201.666666666667,-1358626,-32.6621066723792,
28736,875.9765625,128,8388607,201.666666666667,-1067695,-25.6679674785893,
28768,876.953125,128,8388607,201.666666666667,-1067695,-25.6679674785893,
28800,877.9296875,128,8388607,201.666666666667,-743783,-17.8809471385813,
28832,878.90625,128,8388607,201.666666666667,-743783,-17.8809471385813,
28864,879.8828125,128,5153228,123.88639893767,-415576,-9.99067266670934,
28896,880.859375,128,5153228,123.88639893767,-415576,-9.99067266670934,
28928,881.8359375,128,-7624426,-183.295340533496,386176,9.28388070470659,
28960,882.8125,128,-7624426,-183.295340533496,386176,9.28388070470659,
28992,883.7890625,128,-8388608,-201.66669070721,693266,16.6664910316258,
29024,884.765625,128,-8388608,-201.66669070721,693266,16.6664910316258,
29056,885.7421875,128,-8388608,-201.66669070721,279039,6.70824905732263,
29088,886.71875,128,-8388608,-201.66669070721,279039,6.70824905732263,
29120,887.6953125,128,3573246,85.9027738455264,-159526,-3.8350916506956,
29152,888.671875,128,3573246,85.9027738455264,-159526,-3.8350916506956,
29184,889.6484375,128,8388607,201.666666666667,-886384,-21.3091526002668,
29216,890.625,128,8388607,201.666666666667,-886384,-21.3091526002668,
29248,891.6015625,128,8388607,201.666666666667,-928417,-22.3196487410445,
29280,892.578125,128,8388607,201.666666666667,-928417,-22.3196487410445,
29312,893.5546875,128,8388607,201.666666666667,-928417,-22.3196487410445,
29344,894.53125,128,8388607,201.666666666667,-853436,-20.5170647919653,
29376,895.5078125,128,8388607,201.666666666667,-853436,-20.5170647919653,
29408,896.484375,128,8388607,201.666666666667,-901487,-21.6722369200671,
29440,897.4609375,128,8388607,201.666666666667,-901487,-21.6722369200671,
29472,898.4375,128,-3551551,-85.3812142667629,-455150,-10.9420531124337,
29504,899.4140625,128,-3551551,-85.3812142667629,-455150,-10.9420531124337,
29536,900.390625,128,-8388608,-201.66669070721,456464,10.9736423858375,
29568,901.3671875,128,-8388608,-201.66669070721,456464,10.9736423858375,
29600,902.34375,128,-8388608,-201.66669070721,508643,12.2280538751349,
29632,903.3203125,128,-8388608,-201.66669070721,508643,12.2280538751349,
29664,904.296875,128,-1576276,-37.8945308400628,535917,12.8837356428785,
29696,905.2734375,128,-1576276,-37.8945308400628,535917,12.8837356428785,
29728,906.25,128,8388607,201.666666666667,-374591,-9.00537101491742,
29760,907.2265625,128,8388607,201.666666666667,-374591,-9.00537101491742,
29792,908.203125,128,8388607,201.666666666667,-1355386,-32.5842153133013,
29824,909.1796875,128,8388607,201.666666666667,-1355386,-32.5842153133013,
29856,910.15625,128,8388607,201.666666666667,-513887,-12.3541224822349,
29888,911.1328125,128,8388607,201.666666666667,-513887,-12.3541224822349,
29920,912.109375,128,8388607,201.666666666667,-396393,-9.52950293177401,
29952,913.0859375,128,8388607,201.666666666667,-396393,-9.52950293177401,
29984,914.0625,128,-31911,-0.767157765288087,-383291,-9.21452373836721,
30016,915.0390625,128,-31911,-0.767157765288087,-383291,-9.21452373836721,
30048,916.015625,128,-8388608,-201.66669070721,93701,2.25262291264012,
30080,916.9921875,128,-8388608,-201.66669070721,93701,2.25262291264012,
30112,917.96875,128,-8388608,-201.66669070721,520372,12.5100254031053,
30144,918.9453125,128,-8388608,-201.66669070721,520372,12.5100254031053,
30176,919.921875,128,-6041282,-145.235699244622,269669,6.48298917011291,
30208,920.8984375,128,-6041282,-145.235699244622,269669,6.48298917011291,
30240,921.875,128,7642903,183.739537645126,-1126148,-27.0732093341997,
30272,922.8515625,128,7642903,183.739537645126,-1126148,-27.0732093341997,
30304,923.828125,128,8388607,201.666666666667,-1562804,-37.5706566457736,
30336,924.8046875,128,8388607,201.666666666667,-1562804,-37.5706566457736,
30368,925.78125,128,8388607,201.666666666667,-1224741,-29.4434385828303,
30400,926.7578125,128,8388607,201.666666666667,-1224741,-29.4434385828303,
30432,927.734375,128,8388607,201.666666666667,-981091,-23.5859602990898,
30464,928.7109375,128,8388607,201.666666666667,-981091,-23.5859602990898,
30496,929.6875,128,4621176,111.095579993198,-455287,-10.9453466668145,
30528,930.6640625,128,4621176,111.095579993198,-455287,-10.9453466668145,
30560,931.640625,128,-7806824,-187.680287481978,528551,12.706653003691,
30592,932.6171875,128,-7806824,-187.680287481978,528551,12.706653003691,
30624,933.59375,128,-8388608,-201.66669070721,642477,15.4454958969946,
30656,934.5703125,128,-8388608,-201.66669070721,642477,15.4454958969946,
30688,935.546875,128,-8388608,-201.66669070721,642477,15.4454958969946,
30720,936.5234375,128,-8388608,-201.66669070721,575673,13.8394914674153,
30752,937.5,128,-8388608,-201.66669070721,575673,13.8394914674153,
30784,938.4765625,128,3733173,89.7475057539351,-88067,-2.11717849379919,
30816,939.453125,128,3733173,89.7475057539351,-88067,-2.11717849379919,
30848,940.4296875,128,8388607,201.666666666667,-928850,-22.3300582961311,
30880,941.40625,128,8388607,201.666666666667,-928850,-22.3300582961311,
30912,942.3828125,128,8388607,201.666666666667,-587948,-14.1345891318229,
30944,943.359375,128,8388607,201.666666666667,-587948,-14.1345891318229,
30976,944.3359375,128,8388607,201.666666666667,-844396,-20.2997382839209,
31008,945.3125,128,8388607,201.666666666667,-844396,-20.2997382839209,
31040,946.2890625,128,7802105,187.566840159914,-999370,-24.0253973832207,
31072,947.265625,128,7802105,187.566840159914,-999370,-24.0253973832207,
31104,948.2421875,128,-4793807,-115.245722958929,-257164,-6.18236218083249,
31136,949.21875,128,-4793807,-115.245722958929,-257164,-6.18236218083249,
31168,950.1953125,128,-8388608,-201.66669070721,766689,18.4316198148274,
31200,951.171875,128,-8388608,-201.66669070721,766689,18.4316198148274,
31232,952.1484375,128,-8388608,-201.66669070721,693414,16.6700490319787,
31264,953.125,128,-8388608,-201.66669070721,693414,16.6700490319787,
31296,954.1015625,128,-1910571,-45.9311641372638,-292529,-7.03255598138443,
31328,955.078125,128,-1910571,-45.9311641372638,-292529,-7.03255598138443,
31360,956.0546875,128,8388607,201.666666666667,-1363199,-32.7720440751764,
31392,957.03125,128,8388607,201.666666666667,-1363199,-32.7720440751764,
31424,958.0078125,128,8388607,201.666666666667,-947499,-22.7783903811443,
31456,958.984375,128,8388607,201.666666666667,-947499,-22.7783903811443,
31488,959.9609375,128,8388607,201.666666666667,-1279561,-30.7613411459932,
31520,960.9375,128,8388607,201.666666666667,-1279561,-30.7613411459932,
31552,961.9140625,128,8388607,201.666666666667,-628777,-15.1161404589185,
31584,962.890625,128,8388607,201.666666666667,-628777,-15.1161404589185,
31616,963.8671875,128,37788,0.908444036059861,101149,2.43167687634749,
31648,964.84375,128,37788,0.908444036059861,101149,2.43167687634749,
31680,965.8203125,128,-8388608,-201.66669070721,332588,7.99559609042757,
31712,966.796875,128,-8388608,-201.66669070721,332588,7.99559609042757,
31744,967.7734375,128,-8388608,-201.66669070721,606823,14.5883543795372,
31776,968.75,128,-8388608,-201.66669070721,606823,14.5883543795372,
31808,969.7265625,128,-7314233,-175.83813240188,253241,6.08805113093668,
31840,970.703125,128,-7314233,-175.83813240188,253241,6.08805113093668,
31872,971.6796875,128,6029771,144.95896855501,-871721,-20.9566461193537,
31904,972.65625,128,6029771,144.95896855501,-871721,-20.9566461193537,
31936,973.6328125,128,8388607,201.666666666667,-1648527,-39.631484106956,
31968,974.609375,128,8388607,201.666666666667,-1648527,-39.631484106956,
32000,975.5859375,128,8388607,201.666666666667,-1648527,-39.631484106956,
32032,976.5625,128,8388607,201.666666666667,-1250216,-30.0558714138513,
32064,977.5390625,128,8388607,201.666666666667,-1250216,-30.0558714138513,
32096,978.515625,128,8388607,201.666666666667,-1173406,-28.2093173117619,
32128,979.4921875,128,8388607,201.666666666667,-1173406,-28.2093173117619,
32160,980.46875,128,4146516,99.6844958882923,-557241,-13.3963761802168,
32192,981.4453125,128,4146516,99.6844958882923,-557241,-13.3963761802168,
32224,982.421875,128,-8057731,-193.712227985727,152460,3.66522117438569,
32256,983.3984375,128,-8057731,-193.712227985727,152460,3.66522117438569,
32288,984.375,128,-8388608,-201.66669070721,633054,15.2189618610098,
32320,985.3515625,128,-8388608,-201.66669070721,633054,15.2189618610098,
32352,986.328125,128,-8388608,-201.66669070721,731386,17.5829165279368,
32384,987.3046875,128,-8388608,-201.66669070721,731386,17.5829165279368,
32416,988.28125,128,2692970,64.7404608814471,-488668,-11.7478440302027,
32448,989.2578125,128,2692970,64.7404608814471,-488668,-11.7478440302027,
32480,990.234375,128,8388607,201.666666666667,-1626708,-39.1069435008697,
32512,991.2109375,128,8388607,201.666666666667,-1626708,-39.1069435008697,
32544,992.1875,128,8388607,201.666666666667,-926272,-22.2680817764698,
32576,993.1640625,128,8388607,201.666666666667,-926272,-22.2680817764698,
32608,994.140625,128,8388607,201.666666666667,-1170126,-28.130464330967,
32640,995.1171875,128,8388607,201.666666666667,-1170126,-28.130464330967,
32672,996.09375,128,7515959,180.687734964021,-1141907,-27.452064250159,
32704,997.0703125,128,7515959,180.687734964021,-1141907,-27.452064250159,
32736,998.046875,128,-4958455,-119.203950270488,-491901,-11.8255671054801,
32768,999.0234375,128,-4958455,-119.203950270488,-491901,-11.8255671054801,
32800,1000,128,-8388608,-201.66669070721,426393,10.2507192195319,
32832,1000.9765625,128,-8388608,-201.66669070721,426393,10.2507192195319,
32864,1001.953125,128,-8388608,-201.66669070721,609038,14.6416041821167,
32896,1002.9296875,128,-8388608,-201.66669070721,609038,14.6416041821167,
32928,1003.90625,128,-2517044,-60.5111043267772,216855,5.21331193605804,
32960,1004.8828125,128,-2517044,-60.5111043267772,216855,5.21331193605804,
32992,1005.859375,128,8388607,201.666666666667,-1507251,-36.2351323646465,
33024,1006.8359375,128,8388607,201.666666666667,-1507251,-36.2351323646465,
33056,1007.8125,128,8388607,201.666666666667,-2021764,-48.6043042267526,
33088,1008.7890625,128,8388607,201.666666666667,-2021764,-48.6043042267526,
33120,1009.765625,128,8388607,201.666666666667,-1460877,-35.1202762270303,
33152,1010.7421875,128,8388607,201.666666666667,-1460877,-35.1202762270303,
33184,1011.71875,128,8388607,201.666666666667,-1195329,-28.7363581343124,
33216,1012.6953125,128,8388607,201.666666666667,-1195329,-28.7363581343124,
33248,1013.671875,128,-144354,-3.4703485334335,-350262,-8.42048864608868,
33280,1014.6484375,128,-144354,-3.4703485334335,-350262,-8.42048864608868,
33312,1015.625,128,-144354,-3.4703485334335,-350262,-8.42048864608868,
33344,1016.6015625,128,-8388608,-201.66669070721,562926,13.5330466667469,
33376,1017.578125,128,-8388608,-201.66669070721,562926,13.5330466667469,
33408,1018.5546875,128,-8388608,-201.66669070721,505208,12.1454746101866,
33440,1019.53125,128,-8388608,-201.66669070721,505208,12.1454746101866,
33472,1020.5078125,128,-6575900,-158.088206222241,665311,15.99443765415,
33504,1021.484375,128,-6575900,-158.088206222241,665311,15.99443765415,
33536,1022.4609375,128,6994734,168.157202977801,-701005,-16.8525407933244,
33568,1023.4375,128,6994734,168.157202977801,-701005,-16.8525407933244,
33600,1024.4140625,128,8388607,201.666666666667,-1373932,-33.0300712223933,
33632,1025.390625,128,8388607,201.666666666667,-1373932,-33.0300712223933,
33664,1026.3671875,128,8388607,201.666666666667,-1506042,-36.2060673482498,
33696,1027.34375,128,8388607,201.666666666667,-1506042,-36.2060673482498,
33728,1028.3203125,128,8388607,201.666666666667,-1395246,-33.5424713543023,
33760,1029.296875,128,8388607,201.666666666667,-1395246,-33.5424713543023,
33792,1030.2734375,128,3981671,95.7215325897772,-944166,-22.6982632515744,
33824,1031.25,128,3981671,95.7215325897772,-944166,-22.6982632515744,
33856,1032.2265625,128,-8137914,-195.639870839104,-272136,-6.54229718950953,
33888,1033.203125,128,-8137914,-195.639870839104,-272136,-6.54229718950953,
33920,1034.1796875,128,-8388608,-201.66669070721,266874,6.4157958526368,
33952,1035.15625,128,-8388608,-201.66669070721,266874,6.4157958526368,
33984,1036.1328125,128,-8388608,-201.66669070721,524009,12.5974608577245,
34016,1037.109375,128,-8388608,-201.66669070721,524009,12.5974608577245,
34048,1038.0859375,128,4034670,96.9956573242733,-645641,-15.5215601748101,
34080,1039.0625,128,4034670,96.9956573242733,-645641,-15.5215601748101,
34112,1040.0390625,128,8388607,201.666666666667,-1561963,-37.5504385491735,
34144,1041.015625,128,8388607,201.666666666667,-1561963,-37.5504385491735,
34176,1041.9921875,128,8388607,201.666666666667,-1468205,-35.2964453255866,
34208,1042.96875,128,8388607,201.666666666667,-1468205,-35.2964453255866,
34240,1043.9453125,128,8388607,201.666666666667,-1446848,-34.7830114503318,
34272,1044.921875,128,8388607,201.666666666667,-1446848,-34.7830114503318,
34304,1045.8984375,128,7944776,190.996728459604,-957972,-23.0301669872006,
34336,1046.875,128,7944776,190.996728459604,-957972,-23.0301669872006,
34368,1047.8515625,128,-4891199,-117.587079515506,-381707,-9.17644351837359,
34400,1048.828125,128,-4891199,-117.587079515506,-381707,-9.17644351837359,
34432,1049.8046875,128,-8388608,-201.66669070721,428322,10.2970934268348,
34464,1050.78125,128,-8388608,-201.66669070721,428322,10.2970934268348,
34496,1051.7578125,128,-8388608,-201.66669070721,750897,18.0519715609517,
34528,1052.734375,128,-8388608,-201.66669070721,750897,18.0519715609517,
34560,1053.7109375,128,-1064734,-25.5967834309876,-329253,-7.91542087977181,
34592,1054.6875,128,-1064734,-25.5967834309876,-329253,-7.91542087977181,
34624,1055.6640625,128,8388607,201.666666666667,-1291672,-31.0524961613611,
34656,1056.640625,128,8388607,201.666666666667,-1291672,-31.0524961613611,
34688,1057.6171875,128,8388607,201.666666666667,-1291672,-31.0524961613611,
34720,1058.59375,128,8388607,201.666666666667,-923257,-22.1955995395501,
34752,1059.5703125,128,8388607,201.666666666667,-923257,-22.1955995395501,
34784,1060.546875,128,8388607,201.666666666667,-1141905,-27.4520161690731,
34816,1061.5234375,128,8388607,201.666666666667,-1141905,-27.4520161690731,
34848,1062.5,128,8388607,201.666666666667,-1230014,-29.5702043656752,
34880,1063.4765625,128,8388607,201.666666666667,-1230014,-29.5702043656752,
34912,1064.453125,128,-279171,-6.71142240898876,-675968,-16.2506377201046,
34944,1065.4296875,128,-279171,-6.71142240898876,-675968,-16.2506377201046,
34976,1066.40625,128,-8388608,-201.66669070721,514907,12.3786438360187,
35008,1067.3828125,128,-8388608,-201.66669070721,514907,12.3786438360187,
35040,1068.359375,128,-8388608,-201.66669070721,828311,19.913046150968,
35072,1069.3359375,128,-8388608,-201.66669070721,828311,19.913046150968,
35104,1070.3125,128,-5942749,-142.866912428567,130416,3.13527144614118,
35136,1071.2890625,128,-5942749,-142.866912428567,130416,3.13527144614118,
35168,1072.265625,128,7679881,184.628508841416,-912144,-21.9284369860216,
35200,1073.2421875,128,7679881,184.628508841416,-912144,-21.9284369860216,
35232,1074.21875,128,8388607,201.666666666667,-1759536,-42.3002007365466,
35264,1075.1953125,128,8388607,201.666666666667,-1759536,-42.3002007365466,
35296,1076.171875,128,8388607,201.666666666667,-866134,-20.8223316060303,
35328,1077.1484375,128,8388607,201.666666666667,-866134,-20.8223316060303,
35360,1078.125,128,8388607,201.666666666667,-1102417,-26.5027032100403,
35392,1079.1015625,128,8388607,201.666666666667,-1102417,-26.5027032100403,
35424,1080.078125,128,3860881,92.8176754098346,-631429,-15.1798959787563,
35456,1081.0546875,128,3860881,92.8176754098346,-631429,-15.1798959787563,
35488,1082.03125,128,-8388608,-201.66669070721,190791,4.58671922525397,
35520,1083.0078125,128,-8388608,-201.66669070721,190791,4.58671922525397,
35552,1083.984375,128,-8388608,-201.66669070721,651831,15.6703711355175,
35584,1084.9609375,128,-8388608,-201.66669070721,651831,15.6703711355175,
35616,1085.9375,128,-8388608,-201.66669070721,449211,10.7992763280006,
35648,1086.9140625,128,-8388608,-201.66669070721,449211,10.7992763280006,
35680,1087.890625,128,3860532,92.8092852603537,-941062,-22.6236414063344,
35712,1088.8671875,128,3860532,92.8092852603537,-941062,-22.6236414063344,
35744,1089.84375,128,8388607,201.666666666667,-1456256,-35.0091848781727,
35776,1090.8203125,128,8388607,201.666666666667,-1456256,-35.0091848781727,
35808,1091.796875,128,8388607,201.666666666667,-1429295,-34.3610278003646,
35840,1092.7734375,128,8388607,201.666666666667,-1429295,-34.3610278003646,
35872,1093.75,128,8388607,201.666666666667,-1222101,-29.3799715495076,
35904,1094.7265625,128,8388607,201.666666666667,-1222101,-29.3799715495076,
35936,1095.703125,128,8031889,193.090972275452,-1224672,-29.4417797853684,
35968,1096.6796875,128,8031889,193.090972275452,-1224672,-29.4417797853684,
36000,1097.65625,128,8031889,193.090972275452,-1224672,-29.4417797853684,
36032,1098.6328125,128,-4744582,-114.062327233433,-258404,-6.21217245405981,
36064,1099.609375,128,-4744582,-114.062327233433,-258404,-6.21217245405981,
36096,1100.5859375,128,-8388608,-201.66669070721,406015,9.7608210358009,
36128,1101.5625,128,-8388608,-201.66669070721,406015,9.7608210358009,
36160,1102.5390625,128,-8388608,-201.66669070721,237444,5.70828267434629,
36192,1103.515625,128,-8388608,-201.66669070721,237444,5.70828267434629,
36224,1104.4921875,128,-646814,-15.5497597316614,-434781,-10.452371293589,
36256,1105.46875,128,-646814,-15.5497597316614,-434781,-10.452371293589,
36288,1106.4453125,128,8388607,201.666666666667,-1475369,-35.4686717751032,
36320,1107.421875,128,8388607,201.666666666667,-1475369,-35.4686717751032,
36352,1108.3984375,128,8388607,201.666666666667,-1727940,-41.54061574228,
36384,1109.375,128,8388607,201.666666666667,-1727940,-41.54061574228,
36416,1110.3515625,128,8388607,201.666666666667,-1415947,-34.0401346333982,
36448,1111.328125,128,8388607,201.666666666667,-1415947,-34.0401346333982,
36480,1112.3046875,128,8388607,201.666666666667,-1237646,-29.7536817892808,
36512,1113.28125,128,8388607,201.666666666667,-1237646,-29.7536817892808,
36544,1114.2578125,128,184292,4.43047973678268,-806205,-19.3816059090621,
36576,1115.234375,128,184292,4.43047973678268,-806205,-19.3816059090621,
36608,1116.2109375,128,-8388608,-201.66669070721,730350,17.5580105254663,
36640,1117.1875,128,-8388608,-201.66669070721,730350,17.5580105254663,
36672,1118.1640625,128,-8388608,-201.66669070721,454858,10.9350332738995,
36704,1119.140625,128,-8388608,-201.66669070721,454858,10.9350332738995,
36736,1120.1171875,128,-5649489,-135.816782810305,14822,0.356328927238257,
36768,1121.09375,128,-5649489,-135.816782810305,14822,0.356328927238257,
36800,1122.0703125,128,7810056,187.757986516712,-816661,-19.6329738258887,
36832,1123.046875,128,7810056,187.757986516712,-816661,-19.6329738258887,
36864,1124.0234375,128,8388607,201.666666666667,-1645746,-39.5646273570809,
36896,1125,128,8388607,201.666666666667,-1645746,-39.5646273570809,
36928,1125.9765625,128,8388607,201.666666666667,-2096137,-50.3922715257333,
36960,1126.953125,128,8388607,201.666666666667,-2096137,-50.3922715257333,
36992,1127.9296875,128,8388607,201.666666666667,-1672471,-40.2071108667585,
37024,1128.90625,128,8388607,201.666666666667,-1672471,-40.2071108667585,
37056,1129.8828125,128,4672194,112.322080412159,-1194846,-28.7247465520795,
37088,1130.859375,128,4672194,112.322080412159,-1194846,-28.7247465520795,
37120,1131.8359375,128,-7933312,-190.721127675509,-68432,-1.64514243346164,
37152,1132.8125,128,-7933312,-190.721127675509,-68432,-1.64514243346164,
37184,1133.7890625,128,-8388608,-201.66669070721,338668,8.14176259141317,
37216,1134.765625,128,-8388608,-201.66669070721,338668,8.14176259141317,
37248,1135.7421875,128,-8388608,-201.66669070721,417727,10.0423838745416,
37280,1136.71875,128,-8388608,-201.66669070721,417727,10.0423838745416,
37312,1137.6953125,128,-8388608,-201.66669070721,417727,10.0423838745416,
37344,1138.671875,128,3929896,94.4768334798217,-359138,-8.63387250509332,
37376,1139.6484375,128,3929896,94.4768334798217,-359138,-8.63387250509332,
37408,1140.625,128,8388607,201.666666666667,-1428606,-34.3444638662891,
37440,1141.6015625,128,8388607,201.666666666667,-1428606,-34.3444638662891,
37472,1142.578125,128,8388607,201.666666666667,-1377068,-33.1054623650069,
37504,1143.5546875,128,8388607,201.666666666667,-1377068,-33.1054623650069,
37536,1144.53125,128,8388607,201.666666666667,-1149454,-27.6334982276159,
37568,1145.5078125,128,8388607,201.666666666667,-1149454,-27.6334982276159,
37600,1146.484375,128,8321406,200.051118141546,-1119166,-26.9053582634956,
37632,1147.4609375,128,8321406,200.051118141546,-1119166,-26.9053582634956,
37664,1148.4375,128,-4050713,-97.3813397544233,-340535,-8.18664628505464,
37696,1149.4140625,128,-4050713,-97.3813397544233,-340535,-8.18664628505464,
37728,1150.390625,128,-8388608,-201.66669070721,-54604,-1.31270980589109,
37760,1151.3671875,128,-8388608,-201.66669070721,-54604,-1.31270980589109,
37792,1152.34375,128,-8388608,-201.66669070721,560510,13.4749647150395,
37824,1153.3203125,128,-8388608,-201.66669070721,560510,13.4749647150395,
37856,1154.296875,128,-466381,-11.2120524500274,-52659,-1.26595094990146,
37888,1155.2734375,128,-466381,-11.2120524500274,-52659,-1.26595094990146,
37920,1156.25,128,8388607,201.666666666667,-1014752,-24.3951890144971,
37952,1157.2265625,128,8388607,201.666666666667,-1014752,-24.3951890144971,
37984,1158.203125,128,8388607,201.666666666667,-1525973,-36.6852194092933,
38016,1159.1796875,128,8388607,201.666666666667,-1525973,-36.6852194092933,
38048,1160.15625,128,8388607,201.666666666667,-1436853,-34.5427262237938,
38080,1161.1328125,128,8388607,201.666666666667,-1436853,-34.5427262237938,
38112,1162.109375,128,8388607,201.666666666667,-1073312,-25.8030032082005,
38144,1163.0859375,128,8388607,201.666666666667,-1073312,-25.8030032082005,
38176,1164.0625,128,-38394,-0.92301260507257,-545095,-13.1043797458466,
38208,1165.0390625,128,-38394,-0.92301260507257,-545095,-13.1043797458466,
38240,1166.015625,128,-8388608,-201.66669070721,-181608,-4.36595491957127,
38272,1166.9921875,128,-8388608,-201.66669070721,-181608,-4.36595491957127,
38304,1167.96875,128,-8388608,-201.66669070721,9685,0.232832658231178,
38336,1168.9453125,128,-8388608,-201.66669070721,9685,0.232832658231178,
38368,1169.921875,128,-4885725,-117.455481583533,-105059,-2.52567539918527,
38400,1170.8984375,128,-4885725,-117.455481583533,-105059,-2.52567539918527,
38432,1171.875,128,8270845,198.835604250702,-1538630,-36.9895005610983,
38464,1172.8515625,128,8270845,198.835604250702,-1538630,-36.9895005610983,
38496,1173.828125,128,8388607,201.666666666667,-1416803,-34.0607133381422,
38528,1174.8046875,128,8388607,201.666666666667,-1416803,-34.0607133381422,
38560,1175.78125,128,8388607,201.666666666667,-1739618,-41.8213612025612,
38592,1176.7578125,128,8388607,201.666666666667,-1739618,-41.8213612025612,
38624,1177.734375,128,8388607,201.666666666667,-1290026,-31.0129254277061,
38656,1178.7109375,128,8388607,201.666666666667,-1290026,-31.0129254277061,
38688,1179.6875,128,8388607,201.666666666667,-1290026,-31.0129254277061,
38720,1180.6640625,128,4209391,101.196045024718,-532733,-12.8071905542045,
38752,1181.640625,128,4209391,101.196045024718,-532733,-12.8071905542045,
38784,1182.6171875,128,-8128814,-195.421101898484,77506,1.86328631996548,
38816,1183.59375,128,-8128814,-195.421101898484,77506,1.86328631996548,
38848,1184.5703125,128,-8388608,-201.66669070721,428356,10.2979108052942,
38880,1185.546875,128,-8388608,-201.66669070721,428356,10.2979108052942,
38912,1186.5234375,128,-8312792,-199.844032904788,-17461,-0.419771920018028,
38944,1187.5,128,-8312792,-199.844032904788,-17461,-0.419771920018028,
38976,1188.4765625,128,4825204,116.000523885154,-789776,-18.986643829343,
39008,1189.453125,128,4825204,116.000523885154,-789776,-18.986643829343,
39040,1190.4296875,128,8388607,201.666666666667,-1186746,-28.5300181543849,
39072,1191.40625,128,8388607,201.666666666667,-1186746,-28.5300181543849,
39104,1192.3828125,128,8388607,201.666666666667,-1329164,-31.9538241967151,
39136,1193.359375,128,8388607,201.666666666667,-1329164,-31.9538241967151,
39168,1194.3359375,128,8388607,201.666666666667,-1458369,-35.0599825453737,
39200,1195.3125,128,8388607,201.666666666667,-1458369,-35.0599825453737,
39232,1196.2890625,128,8113581,195.054892308103,-735450,-17.6806172943851,
39264,1197.265625,128,8113581,195.054892308103,-735450,-17.6806172943851,
39296,1198.2421875,128,-4271941,-102.699780984693,-357951,-8.60533638064103,
39328,1199.21875,128,-4271941,-102.699780984693,-357951,-8.60533638064103,
39360,1200.1953125,128,-8388608,-201.66669070721,223071,5.36274795088148,
39392,1201.171875,128,-8388608,-201.66669070721,223071,5.36274795088148,
39424,1202.1484375,128,-8388608,-201.66669070721,345456,8.30494979678986,
39456,1203.125,128,-8388608,-201.66669070721,345456,8.30494979678986,
39488,1204.1015625,128,-509296,-12.243752349665,-407695,-9.80120914791534,
39520,1205.078125,128,-509296,-12.243752349665,-407695,-9.80120914791534,
39552,1206.0546875,128,8388607,201.666666666667,-1355232,-32.5805130696908,
39584,1207.03125,128,8388607,201.666666666667,-1355232,-32.5805130696908,
39616,1208.0078125,128,8388607,201.666666666667,-1415782,-34.0361679438155,
39648,1208.984375,128,8388607,201.666666666667,-1415782,-34.0361679438155,
39680,1209.9609375,128,8388607,201.666666666667,-1146858,-27.571088978182,
39712,1210.9375,128,8388607,201.666666666667,-1146858,-27.571088978182,
39744,1211.9140625,128,8388607,201.666666666667,-1576011,-37.8881600961876,
39776,1212.890625,128,8388607,201.666666666667,-1576011,-37.8881600961876,
39808,1213.8671875,128,209265,5.03084421525529,-701151,-16.8560507125915,
39840,1214.84375,128,209265,5.03084421525529,-701151,-16.8560507125915,
39872,1215.8203125,128,-8388608,-201.66669070721,514303,12.3641233480918,
39904,1216.796875,128,-8388608,-201.66669070721,514303,12.3641233480918,
39936,1217.7734375,128,-8388608,-201.66669070721,558442,13.4252488722701,
39968,1218.75,128,-8388608,-201.66669070721,558442,13.4252488722701,
40000,1219.7265625,128,-8388608,-201.66669070721,558442,13.4252488722701,
40032,1220.703125,128,-4849522,-116.58514180801,384490,9.2433483493346,
40064,1221.6796875,128,-4849522,-116.58514180801,384490,9.2433483493346,
40096,1222.65625,128,8364076,201.076928108167,-596925,-14.350401085663,
40128,1223.6328125,128,8364076,201.076928108167,-596925,-14.350401085663,
40160,1224.609375,128,8388607,201.666666666667,-1782642,-42.8556815213777,
40192,1225.5859375,128,8388607,201.666666666667,-1782642,-42.8556815213777,
40224,1226.5625,128,8388607,201.666666666667,-1685423,-40.5184839787265,
40256,1227.5390625,128,8388607,201.666666666667,-1685423,-40.5184839787265,
40288,1228.515625,128,8388607,201.666666666667,-1532182,-36.8344871403162,
40320,1229.4921875,128,8388607,201.666666666667,-1532182,-36.8344871403162,
40352,1230.46875,128,3956821,95.1241250980844,-956758,-23.0009817680893,
40384,1231.4453125,128,3956821,95.1241250980844,-956758,-23.0009817680893,
40416,1232.421875,128,-8129637,-195.440887265311,64119,1.54145557182498,
40448,1233.3984375,128,-8129637,-195.440887265311,64119,1.54145557182498,
40480,1234.375,128,-8388608,-201.66669070721,845647,20.3298130031204,
40512,1235.3515625,128,-8388608,-201.66669070721,845647,20.3298130031204,
40544,1236.328125,128,-8316170,-199.925241858789,461106,11.0852385860966,
40576,1237.3046875,128,-8316170,-199.925241858789,461106,11.0852385860966,
40608,1238.28125,128,4763876,114.526165468633,-353660,-8.50217841094872,
40640,1239.2578125,128,4763876,114.526165468633,-353660,-8.50217841094872,
40672,1240.234375,128,8388607,201.666666666667,-1315173,-31.6174729606477,
40704,1241.2109375,128,8388607,201.666666666667,-1315173,-31.6174729606477,
40736,1242.1875,128,8388607,201.666666666667,-1800293,-43.2800211445516,
40768,1243.1640625,128,8388607,201.666666666667,-1800293,-43.2800211445516,
40800,1244.140625,128,8388607,201.666666666667,-1293519,-31.096899044144,
40832,1245.1171875,128,8388607,201.666666666667,-1293519,-31.096899044144,
40864,1246.09375,128,7738861,186.046420063148,-1142486,-27.4659837245127,
40896,1247.0703125,128,7738861,186.046420063148,-1142486,-27.4659837245127,
40928,1248.046875,128,-5166223,-124.198805792984,-216105,-5.19528152886409,
40960,1249.0234375,128,-5166223,-124.198805792984,-216105,-5.19528152886409,
40992,1250,128,-8388608,-201.66669070721,449211,10.7992763280006,
41024,1250.9765625,128,-8388608,-201.66669070721,449211,10.7992763280006,
41056,1251.953125,128,-8388608,-201.66669070721,544846,13.0983936506582,
41088,1252.9296875,128,-8388608,-201.66669070721,544846,13.0983936506582,
41120,1253.90625,128,-243529,-5.85456937804652,209793,5.04353762191983,
41152,1254.8828125,128,-243529,-5.85456937804652,209793,5.04353762191983,
41184,1255.859375,128,8388607,201.666666666667,-1509696,-36.2939114920988,
41216,1256.8359375,128,8388607,201.666666666667,-1509696,-36.2939114920988,
41248,1257.8125,128,8388607,201.666666666667,-1182932,-28.4383275236679,
41280,1258.7890625,128,8388607,201.666666666667,-1182932,-28.4383275236679,
41312,1259.765625,128,8388607,201.666666666667,-1182932,-28.4383275236679,
41344,1260.7421875,128,8388607,201.666666666667,-1172066,-28.177102984242,
41376,1261.71875,128,8388607,201.666666666667,-1172066,-28.177102984242,
41408,1262.6953125,128,8388607,201.666666666667,-906494,-21.7926079184939,
41440,1263.671875,128,8388607,201.666666666667,-906494,-21.7926079184939,
41472,1264.6484375,128,-412307,-9.91208413188666,-413151,-9.93237435011558,
41504,1265.625,128,-412307,-9.91208413188666,-413151,-9.93237435011558,
41536,1266.6015625,128,-8388608,-201.66669070721,-80196,-1.92795538043444,
41568,1267.578125,128,-8388608,-201.66669070721,-80196,-1.92795538043444,
41600,1268.5546875,128,-8388608,-201.66669070721,295689,7.10852409702827,
41632,1269.53125,128,-8388608,-201.66669070721,295689,7.10852409702827,
41664,1270.5078125,128,-4538146,-109.099493714113,-213972,-5.1440030508045,
41696,1271.484375,128,-4538146,-109.099493714113,-213972,-5.1440030508045,
41728,1272.4609375,128,8388607,201.666666666667,-1008047,-24.2339971741832,
41760,1273.4375,128,8388607,201.666666666667,-1008047,-24.2339971741832,
41792,1274.4140625,128,8388607,201.666666666667,-1843467,-44.3179475448069,
41824,1275.390625,128,8388607,201.666666666667,-1843467,-44.3179475448069,
41856,1276.3671875,128,8388607,201.666666666667,-1691402,-40.6622223848767,
41888,1277.34375,128,8388607,201.666666666667,-1691402,-40.6622223848767,
41920,1278.3203125,128,8388607,201.666666666667,-1057950,-25.4336923877826,
41952,1279.296875,128,8388607,201.666666666667,-1057950,-25.4336923877826,
41984,1280.2734375,128,4007551,96.3437018406831,-354368,-8.51919911533981,
42016,1281.25,128,4007551,96.3437018406831,-354368,-8.51919911533981,
42048,1282.2265625,128,-8388608,-201.66669070721,178350,4.28763083072076,
42080,1283.203125,128,-8388608,-201.66669070721,178350,4.28763083072076,
42112,1284.1796875,128,-8388608,-201.66669070721,397163,9.54801414982647,
42144,1285.15625,128,-8388608,-201.66669070721,397163,9.54801414982647,
42176,1286.1328125,128,-8337556,-200.439372909789,495961,11.9231717097567,
42208,1287.109375,128,-8337556,-200.439372909789,495961,11.9231717097567,
42240,1288.0859375,128,4718700,113.440109901441,-563626,-13.5498750467946,
42272,1289.0625,128,4718700,113.440109901441,-563626,-13.5498750467946,
42304,1290.0390625,128,8388607,201.666666666667,-1737915,-41.7804201579595,
42336,1291.015625,128,8388607,201.666666666667,-1737915,-41.7804201579595,
42368,1291.9921875,128,8388607,201.666666666667,-1367749,-32.8814285454864,
42400,1292.96875,128,8388607,201.666666666667,-1367749,-32.8814285454864,
42432,1293.9453125,128,8388607,201.666666666667,-1522483,-36.6013179144841,
42464,1294.921875,128,8388607,201.666666666667,-1522483,-36.6013179144841,
42496,1295.8984375,128,7938106,190.836378038293,-927252,-22.2916415085365,
42528,1296.875,128,7938106,190.836378038293,-927252,-22.2916415085365,
42560,1297.8515625,128,-4656944,-111.955462132549,-50301,-1.20926334968368,
42592,1298.828125,128,-4656944,-111.955462132549,-50301,-1.20926334968368,
42624,1299.8046875,128,-8388608,-201.66669070721,-218486,-5.25252206156914,
42656,1300.78125,128,-8388608,-201.66669070721,-218486,-5.25252206156914,
42688,1301.7578125,128,-8388608,-201.66669070721,-218486,-5.25252206156914,
42720,1302.734375,128,-8388608,-201.66669070721,-129924,-3.12344349902195,
42752,1303.7109375,128,-8388608,-201.66669070721,-129924,-3.12344349902195,
42784,1304.6875,128,224333,5.39308711605316,-85345,-2.05174013595662,
42816,1305.6640625,128,224333,5.39308711605316,-85345,-2.05174013595662,
42848,1306.640625,128,8388607,201.666666666667,-1316331,-31.6453119093552,
42880,1307.6171875,128,8388607,201.666666666667,-1316331,-31.6453119093552,
42912,1308.59375,128,8388607,201.666666666667,-1639377,-39.4115131391899,
42944,1309.5703125,128,8388607,201.666666666667,-1639377,-39.4115131391899,
42976,1310.546875,128,8388607,201.666666666667,-1354215,-32.5560638375358,
43008,1311.5234375,128,8388607,201.666666666667,-1354215,-32.5560638375358,
43040,1312.5,128,8388607,201.666666666667,-922499,-22.1773768080127,
43072,1313.4765625,128,8388607,201.666666666667,-922499,-22.1773768080127,
43104,1314.453125,128,-108013,-2.5966911629865,-523292,-12.580223788447,
43136,1315.4296875,128,-108013,-2.5966911629865,-523292,-12.580223788447,
43168,1316.40625,128,-8388608,-201.66669070721,470235,11.3047047024613,
43200,1317.3828125,128,-8388608,-201.66669070721,470235,11.3047047024613,
43232,1318.359375,128,-8388608,-201.66669070721,485340,11.6678371033474,
43264,1319.3359375,128,-8388608,-201.66669070721,485340,11.6678371033474,
43296,1320.3125,128,-3816086,-91.7407792894975,171261,4.11720742192357,
43328,1321.2890625,128,-3816086,-91.7407792894975,171261,4.11720742192357,
43360,1322.265625,128,8388607,201.666666666667,-1332522,-32.0345523398581,
43392,1323.2421875,128,8388607,201.666666666667,-1332522,-32.0345523398581,
43424,1324.21875,128,8388607,201.666666666667,-1884197,-45.2971188581529,
43456,1325.1953125,128,8388607,201.666666666667,-1884197,-45.2971188581529,
43488,1326.171875,128,8388607,201.666666666667,-1673651,-40.2354787074103,
43520,1327.1484375,128,8388607,201.666666666667,-1673651,-40.2354787074103,
43552,1328.125,128,8388607,201.666666666667,-725592,-17.4436256222279,
43584,1329.1015625,128,8388607,201.666666666667,-725592,-17.4436256222279,
43616,1330.078125,128,4578069,110.059264309319,-781911,-18.7975649592358,
43648,1331.0546875,128,4578069,110.059264309319,-781911,-18.7975649592358,
43680,1332.03125,128,-8015249,-192.690937641176,-412582,-9.9186952811911,
43712,1333.0078125,128,-8015249,-192.690937641176,-412582,-9.9186952811911,
43744,1333.984375,128,-8388608,-201.66669070721,324589,7.80329578756839,
43776,1334.9609375,128,-8388608,-201.66669070721,324589,7.80329578756839,
43808,1335.9375,128,-8197613,-197.075067211199,591979,14.2314965603546,
43840,1336.9140625,128,-8197613,-197.075067211199,591979,14.2314965603546,
43872,1337.890625,128,4950826,119.020544968511,-190921,-4.58984449583425,
43904,1338.8671875,128,4950826,119.020544968511,-190921,-4.58984449583425,
43936,1339.84375,128,8388607,201.666666666667,-1693277,-40.7072984028616,
43968,1340.8203125,128,8388607,201.666666666667,-1693277,-40.7072984028616,
44000,1341.796875,128,8388607,201.666666666667,-1693277,-40.7072984028616,
44032,1342.7734375,128,8388607,201.666666666667,-1993416,-47.9228029159073,
44064,1343.75,128,8388607,201.666666666667,-1993416,-47.9228029159073,
44096,1344.7265625,128,8388607,201.666666666667,-1119041,-26.9023531956299,
44128,1345.703125,128,8388607,201.666666666667,-1119041,-26.9023531956299,
44160,1346.6796875,128,7676221,184.54052045431,-969496,-23.3072102038714,
44192,1347.65625,128,7676221,184.54052045431,-969496,-23.3072102038714,
44224,1348.6328125,128,-5237757,-125.9185219906,-219404,-5.27459127997453,
44256,1349.609375,128,-5237757,-125.9185219906,-219404,-5.27459127997453,
44288,1350.5859375,128,-8388608,-201.66669070721,174528,4.1957478756604,
44320,1351.5625,128,-8388608,-201.66669070721,174528,4.1957478756604,
44352,1352.5390625,128,-8388608,-201.66669070721,299919,7.21021559360213,
44384,1353.515625,128,-8388608,-201.66669070721,299919,7.21021559360213,
44416,1354.4921875,128,620929,14.927470278041,-544591,-13.0922633122122,
44448,1355.46875,128,620929,14.927470278041,-544591,-13.0922633122122,
44480,1356.4453125,128,8388607,201.666666666667,-1814727,-43.6270223411348,
44512,1357.421875,128,8388607,201.666666666667,-1814727,-43.6270223411348,
44544,1358.3984375,128,8388607,201.666666666667,-2006272,-48.2318681357544,
44576,1359.375,128,8388607,201.666666666667,-2006272,-48.2318681357544,
44608,1360.3515625,128,8388607,201.666666666667,-1628547,-39.1511540593092,
44640,1361.328125,128,8388607,201.666666666667,-1628547,-39.1511540593092,
44672,1362.3046875,128,8388607,201.666666666667,-1058252,-25.4409526317461,
44704,1363.28125,128,8388607,201.666666666667,-1058252,-25.4409526317461,
44736,1364.2578125,128,-819847,-19.7095669956486,-608352,-14.62511236967,
44768,1365.234375,128,-819847,-19.7095669956486,-608352,-14.62511236967,
44800,1366.2109375,128,-8388608,-201.66669070721,144043,3.46287192458374,
44832,1367.1875,128,-8388608,-201.66669070721,144043,3.46287192458374,
44864,1368.1640625,128,-8388608,-201.66669070721,665331,15.9949184650086,
44896,1369.140625,128,-8388608,-201.66669070721,665331,15.9949184650086,
44928,1370.1171875,128,-4130327,-99.2953035388752,240103,5.77220647798457,
44960,1371.09375,128,-4130327,-99.2953035388752,240103,5.77220647798457,
44992,1372.0703125,128,8388607,201.666666666667,-1013528,-24.3657633899566,
45024,1373.046875,128,8388607,201.666666666667,-1013528,-24.3657633899566,
45056,1374.0234375,128,8388607,201.666666666667,-1600502,-38.4769370329702,
45088,1375,128,8388607,201.666666666667,-1600502,-38.4769370329702,
45120,1375.9765625,128,8388607,201.666666666667,-1526939,-36.7084425737591,
45152,1376.953125,128,8388607,201.666666666667,-1526939,-36.7084425737591,
45184,1377.9296875,128,8388607,201.666666666667,-1577482,-37.9235237348307,
45216,1378.90625,128,8388607,201.666666666667,-1577482,-37.9235237348307,
45248,1379.8828125,128,3040138,73.086568087725,-775708,-18.6484414714704,
45280,1380.859375,128,3040138,73.086568087725,-775708,-18.6484414714704,
45312,1381.8359375,128,3040138,73.086568087725,-775708,-18.6484414714704,
45344,1382.8125,128,-8388608,-201.66669070721,-24267,-0.583391855167372,
45376,1383.7890625,128,-8388608,-201.66669070721,-24267,-0.583391855167372,
45408,1384.765625,128,-8388608,-201.66669070721,438317,10.5373786533728,
45440,1385.7421875,128,-8388608,-201.66669070721,438317,10.5373786533728,
45472,1386.71875,128,-7865819,-189.098559311854,226055,5.43448493097046,
45504,1387.6953125,128,-7865819,-189.098559311854,226055,5.43448493097046,
45536,1388.671875,128,5563611,133.752229064969,-1040951,-25.0250271985961,
45568,1389.6484375,128,5563611,133.752229064969,-1040951,-25.0250271985961,
45600,1390.625,128,8388607,201.666666666667,-2301262,-55.323587893278,
45632,1391.6015625,128,8388607,201.666666666667,-2301262,-55.323587893278,
45664,1392.578125,128,8388607,201.666666666667,-2053109,-49.357855044745,
45696,1393.5546875,128,8388607,201.666666666667,-2053109,-49.357855044745,
45728,1394.53125,128,8388607,201.666666666667,-1440861,-34.6390807198382,
45760,1395.5078125,128,8388607,201.666666666667,-1440861,-34.6390807198382,
45792,1396.484375,128,7723845,185.685427270583,-1150621,-27.6615535412097,
45824,1397.4609375,128,7723845,185.685427270583,-1150621,-27.6615535412097,
45856,1398.4375,128,-5090236,-122.372037057722,-595521,-14.3166481633959,
45888,1399.4140625,128,-5090236,-122.372037057722,-595521,-14.3166481633959,
45920,1400.390625,128,-8388608,-201.66669070721,504739,12.1341995955546,
45952,1401.3671875,128,-8388608,-201.66669070721,504739,12.1341995955546,
45984,1402.34375,128,-8388608,-201.66669070721,407964,9.80767605396224,
46016,1403.3203125,128,-8388608,-201.66669070721,407964,9.80767605396224,
46048,1404.296875,128,339068,8.15137880858328,-474756,-11.4133919970264,
46080,1405.2734375,128,339068,8.15137880858328,-474756,-11.4133919970264,
46112,1406.25,128,8388607,201.666666666667,-1526165,-36.6898351935349,
46144,1407.2265625,128,8388607,201.666666666667,-1526165,-36.6898351935349,
46176,1408.203125,128,8388607,201.666666666667,-1293177,-31.0886771784636,
46208,1409.1796875,128,8388607,201.666666666667,-1293177,-31.0886771784636,
46240,1410.15625,128,8388607,201.666666666667,-1188740,-28.5779549969778,
46272,1411.1328125,128,8388607,201.666666666667,-1188740,-28.5779549969778,
46304,1412.109375,128,8388607,201.666666666667,-1755023,-42.1917057663249,
46336,1413.0859375,128,8388607,201.666666666667,-1755023,-42.1917057663249,
46368,1414.0625,128,-752116,-18.0812769827776,-830459,-19.9646852371715,
46400,1415.0390625,128,-752116,-18.0812769827776,-830459,-19.9646852371715,
46432,1416.015625,128,-8388608,-201.66669070721,474142,11.3986311036703,
46464,1416.9921875,128,-8388608,-201.66669070721,474142,11.3986311036703,
46496,1417.96875,128,-8388608,-201.66669070721,690066,16.5895612942649,
46528,1418.9453125,128,-8388608,-201.66669070721,690066,16.5895612942649,
46560,1419.921875,128,-3935976,-94.6229999808073,48499,1.16594229133236,
46592,1420.8984375,128,-3935976,-94.6229999808073,48499,1.16594229133236,
46624,1421.875,128,8388607,201.666666666667,-1524479,-36.6493028381629,
46656,1422.8515625,128,8388607,201.666666666667,-1524479,-36.6493028381629,
46688,1423.828125,128,8388607,201.666666666667,-1524479,-36.6493028381629,
46720,1424.8046875,128,8388607,201.666666666667,-1726459,-41.5050116982077,
46752,1425.78125,128,8388607,201.666666666667,-1726459,-41.5050116982077,
46784,1426.7578125,128,8388607,201.666666666667,-1498583,-36.0267489385703,
46816,1427.734375,128,8388607,201.666666666667,-1498583,-36.0267489385703,
46848,1428.7109375,128,8388607,201.666666666667,-1840753,-44.2527015113077,
46880,1429.6875,128,8388607,201.666666666667,-1840753,-44.2527015113077,
46912,1430.6640625,128,3766051,90.5379107242319,-1515773,-36.4400058714556,
46944,1431.640625,128,3766051,90.5379107242319,-1515773,-36.4400058714556,
46976,1432.6171875,128,-8388608,-201.66669070721,-135797,-3.26463360762202,
47008,1433.59375,128,-8388608,-201.66669070721,-135797,-3.26463360762202,
47040,1434.5703125,128,-8388608,-201.66669070721,472320,11.3548292344605,
47072,1435.546875,128,-8388608,-201.66669070721,472320,11.3548292344605,
47104,1436.5234375,128,-7833621,-188.324501910746,550532,13.2350881777312,
47136,1437.5,128,-7833621,-188.324501910746,550532,13.2350881777312,
47168,1438.4765625,128,5698257,136.989192007684,-589057,-14.161250093927,
47200,1439.453125,128,5698257,136.989192007684,-589057,-14.161250093927,
47232,1440.4296875,128,8388607,201.666666666667,-1957039,-47.0482800859149,
47264,1441.40625,128,8388607,201.666666666667,-1957039,-47.0482800859149,
47296,1442.3828125,128,8388607,201.666666666667,-1526892,-36.7073126682416,
47328,1443.359375,128,8388607,201.666666666667,-1526892,-36.7073126682416,
47360,1444.3359375,128,8388607,201.666666666667,-786357,-18.9044492130815,
47392,1445.3125,128,8388607,201.666666666667,-786357,-18.9044492130815,
47424,1446.2890625,128,7248451,174.25669740717,-1483797,-35.6712854708773,
47456,1447.265625,128,7248451,174.25669740717,-1483797,-35.6712854708773,
47488,1448.2421875,128,-5750927,-138.255407403557,-587821,-14.1315359828714,
47520,1449.21875,128,-5750927,-138.255407403557,-587821,-14.1315359828714,
47552,1450.1953125,128,-8388608,-201.66669070721,196076,4.71377349461399,
47584,1451.171875,128,-8388608,-201.66669070721,196076,4.71377349461399,
47616,1452.1484375,128,-8388608,-201.66669070721,377195,9.0679725886948,
47648,1453.125,128,-8388608,-201.66669070721,377195,9.0679725886948,
47680,1454.1015625,128,1086098,26.1103855900429,110978,2.6679713727599,
47712,1455.078125,128,1086098,26.1103855900429,110978,2.6679713727599,
47744,1456.0546875,128,8388607,201.666666666667,-1228781,-29.5405623762483,
47776,1457.03125,128,8388607,201.666666666667,-1228781,-29.5405623762483,
47808,1458.0078125,128,8388607,201.666666666667,-1162408,-27.9449194206698,
47840,1458.984375,128,8388607,201.666666666667,-1162408,-27.9449194206698,
47872,1459.9609375,128,8388607,201.666666666667,-1370618,-32.9504008631389,
47904,1460.9375,128,8388607,201.666666666667,-1370618,-32.9504008631389,
47936,1461.9140625,128,8388607,201.666666666667,-1239184,-29.7906561442998,
47968,1462.890625,128,8388607,201.666666666667,-1239184,-29.7906561442998,
48000,1463.8671875,128,8388607,201.666666666667,-1239184,-29.7906561442998,
48032,1464.84375,128,-1635869,-39.327178914608,-395643,-9.51147252458006,
48064,1465.8203125,128,-1635869,-39.327178914608,-395643,-9.51147252458006,
48096,1466.796875,128,-8388608,-201.66669070721,606926,14.5908305554585,
48128,1467.7734375,128,-8388608,-201.66669070721,606926,14.5908305554585,
48160,1468.75,128,-8388608,-201.66669070721,788002,18.9439959061936,
48192,1469.7265625,128,-8388608,-201.66669070721,788002,18.9439959061936,
48224,1470.703125,128,-3865404,-92.9264107854856,111548,2.6816744822273,
48256,1471.6796875,128,-3865404,-92.9264107854856,111548,2.6816744822273,
48288,1472.65625,128,8388607,201.666666666667,-1537394,-36.9597864500427,
48320,1473.6328125,128,8388607,201.666666666667,-1537394,-36.9597864500427,
48352,1474.609375,128,8388607,201.666666666667,-1726288,-41.5009007653674,
48384,1475.5859375,128,8388607,201.666666666667,-1726288,-41.5009007653674,
48416,1476.5625,128,8388607,201.666666666667,-1198704,-28.8174949666852,
48448,1477.5390625,128,8388607,201.666666666667,-1198704,-28.8174949666852,
48480,1478.515625,128,8388607,201.666666666667,-1151936,-27.6931668551564,
48512,1479.4921875,128,8388607,201.666666666667,-1151936,-27.6931668551564,
48544,1480.46875,128,3974249,95.5431036801859,-751581,-18.0684152923125,
48576,1481.4453125,128,3974249,95.5431036801859,-751581,-18.0684152923125,
48608,1482.421875,128,-8388608,-201.66669070721,-367211,-8.82795180812897,
48640,1483.3984375,128,-8388608,-201.66669070721,-367211,-8.82795180812897,
48672,1484.375,128,-8388608,-201.66669070721,-9345,-0.224658873636588,
48704,1485.3515625,128,-8388608,-201.66669070721,-9345,-0.224658873636588,
48736,1486.328125,128,-7884085,-189.537683868927,122551,2.94619257603398,
48768,1487.3046875,128,-7884085,-189.537683868927,122551,2.94619257603398,
48800,1488.28125,128,5543072,133.258460353827,-444263,-10.6803237216064,
48832,1489.2578125,128,5543072,133.258460353827,-444263,-10.6803237216064,
48864,1490.234375,128,8388607,201.666666666667,-1604499,-38.5730270830425,
48896,1491.2109375,128,8388607,201.666666666667,-1604499,-38.5730270830425,
48928,1492.1875,128,8388607,201.666666666667,-1443449,-34.7012976449288,
48960,1493.1640625,128,8388607,201.666666666667,-1443449,-34.7012976449288,
48992,1494.140625,128,8388607,201.666666666667,-1191661,-28.6481774228625,
49024,1495.1171875,128,8388607,201.666666666667,-1191661,-28.6481774228625,
49056,1496.09375,128,7388395,177.621027146303,-1205121,-28.9717631306366,
49088,1497.0703125,128,7388395,177.621027146303,-1205121,-28.9717631306366,
49120,1498.046875,128,-5611164,-134.895429002694,-713210,-17.1459556197273,
49152,1499.0234375,128,-5611164,-134.895429002694,-713210,-17.1459556197273,
49184,1500,128,-8388608,-201.66669070721,230985,5.55300480759201,
49216,1500.9765625,128,-8388608,-201.66669070721,230985,5.55300480759201,
49248,1501.953125,128,-8388608,-201.66669070721,557179,13.3948856665554,
49280,1502.9296875,128,-8388608,-201.66669070721,557179,13.3948856665554,
49312,1503.90625,128,1376906,33.101567797053,114597,2.75497409760643,
49344,1504.8828125,128,1376906,33.101567797053,114597,2.75497409760643,
49376,1505.859375,128,1376906,33.101567797053,114597,2.75497409760643,
49408,1506.8359375,128,8388607,201.666666666667,-1479576,-35.5698103391898,
49440,1507.8125,128,8388607,201.666666666667,-1479576,-35.5698103391898,
49472,1508.7890625,128,8388607,201.666666666667,-1502554,-36.1222139345265,
49504,1509.765625,128,8388607,201.666666666667,-1502554,-36.1222139345265,
49536,1510.7421875,128,8388607,201.666666666667,-902907,-21.706374491021,
49568,1511.71875,128,8388607,201.666666666667,-902907,-21.706374491021,
49600,1512.6953125,128,8388607,201.666666666667,-829445,-19.9403081266453,
49632,1513.671875,128,8388607,201.666666666667,-829445,-19.9403081266453,
49664,1514.6484375,128,-1586168,-38.1323398906795,-175985,-4.23077494670251,
49696,1515.625,128,-1586168,-38.1323398906795,-175985,-4.23077494670251,
49728,1516.6015625,128,-8388608,-201.66669070721,475750,11.4372882966942,
49760,1517.578125,128,-8388608,-201.66669070721,475750,11.4372882966942,
49792,1518.5546875,128,-8388608,-201.66669070721,302226,7.26567712613071,
49824,1519.53125,128,-8388608,-201.66669070721,302226,7.26567712613071,
49856,1520.5078125,128,-3427463,-82.3980713762527,-20993,-0.504683117630059,
49888,1521.484375,128,-3427463,-82.3980713762527,-20993,-0.504683117630059,
49920,1522.4609375,128,8388607,201.666666666667,-1148322,-27.6062843330245,
49952,1523.4375,128,8388607,201.666666666667,-1148322,-27.6062843330245,
49984,1524.4140625,128,8388607,201.666666666667,-2295605,-55.1875905419497,
50016,1525.390625,128,8388607,201.666666666667,-2295605,-55.1875905419497,
50048,1526.3671875,128,8388607,201.666666666667,-1751472,-42.1063377983973,
50080,1527.34375,128,8388607,201.666666666667,-1751472,-42.1063377983973,
50112,1528.3203125,128,8388607,201.666666666667,-984041,-23.6568799007193,
50144,1529.296875,128,8388607,201.666666666667,-984041,-23.6568799007193,
50176,1530.2734375,128,2892719,69.5425352902256,-599538,-14.4132190243267,
50208,1531.25,128,2892719,69.5425352902256,-599538,-14.4132190243267,
50240,1532.2265625,128,-8388608,-201.66669070721,-120026,-2.88549020514769,
50272,1533.203125,128,-8388608,-201.66669070721,-120026,-2.88549020514769,
50304,1534.1796875,128,-8388608,-201.66669070721,31748,0.763239156791269,
50336,1535.15625,128,-8388608,-201.66669070721,31748,0.763239156791269,
50368,1536.1328125,128,-7481106,-179.849849921447,334630,8.04468687908096,
50400,1537.109375,128,-7481106,-179.849849921447,334630,8.04468687908096,
50432,1538.0859375,128,6147274,147.783804470357,-688424,-16.5500867227817,
50464,1539.0625,128,6147274,147.783804470357,-688424,-16.5500867227817,
50496,1540.0390625,128,8388607,201.666666666667,-1821178,-43.7821078835457,
50528,1541.015625,128,8388607,201.666666666667,-1821178,-43.7821078835457,
50560,1541.9921875,128,8388607,201.666666666667,-1574821,-37.8595518501065,
50592,1542.96875,128,8388607,201.666666666667,-1574821,-37.8595518501065,
50624,1543.9453125,128,8388607,201.666666666667,-1296004,-31.1566397933133,
50656,1544.921875,128,8388607,201.666666666667,-1296004,-31.1566397933133,
50688,1545.8984375,128,8388607,201.666666666667,-1296004,-31.1566397933133,
50720,1546.875,128,6931206,166.629955366845,-707380,-17.005799254473,
50752,1547.8515625,128,6931206,166.629955366845,-707380,-17.005799254473,
50784,1548.828125,128,-6043327,-145.284862154904,-381549,-9.1726451125914,
50816,1549.8046875,128,-6043327,-145.284862154904,-381549,-9.1726451125914,
50848,1550.78125,128,-8388608,-201.66669070721,-96876,-2.32895163642784,
50880,1551.7578125,128,-8388608,-201.66669070721,-96876,-2.32895163642784,
50912,1552.734375,128,-8388608,-201.66669070721,460848,11.0790361260219,
50944,1553.7109375,128,-8388608,-201.66669070721,460848,11.0790361260219,
50976,1554.6875,128,1875428,45.0863073372413,-144401,-3.47147843895099,
51008,1555.6640625,128,1875428,45.0863073372413,-144401,-3.47147843895099,
51040,1556.640625,128,8388607,201.666666666667,-1807906,-43.4630417978416,
51072,1557.6171875,128,8388607,201.666666666667,-1807906,-43.4630417978416,
51104,1558.59375,128,8388607,201.666666666667,-1597201,-38.3975792007739,
51136,1559.5703125,128,8388607,201.666666666667,-1597201,-38.3975792007739,
51168,1560.546875,128,8388607,201.666666666667,-1186397,-28.521628004904,
51200,1561.5234375,128,8388607,201.666666666667,-1186397,-28.521628004904,
51232,1562.5,128,8388607,201.666666666667,-1233147,-29.64552338666,
51264,1563.4765625,128,8388607,201.666666666667,-1233147,-29.64552338666,
51296,1564.453125,128,-2266227,-54.4813274718913,-841770,-20.2366078181991,
51328,1565.4296875,128,-2266227,-54.4813274718913,-841770,-20.2366078181991,
51360,1566.40625,128,-8388608,-201.66669070721,400798,9.6354015233598,
51392,1567.3828125,128,-8388608,-201.66669070721,400798,9.6354015233598,
51424,1568.359375,128,-8388608,-201.66669070721,625814,15.0449083302309,
51456,1569.3359375,128,-8388608,-201.66669070721,625814,15.0449083302309,
51488,1570.3125,128,-2870798,-69.0155425487609,140069,3.36733480699875,
51520,1571.2890625,128,-2870798,-69.0155425487609,140069,3.36733480699875,
51552,1572.265625,128,8388607,201.666666666667,-986762,-23.722294218019,
51584,1573.2421875,128,8388607,201.666666666667,-986762,-23.722294218019,
51616,1574.21875,128,8388607,201.666666666667,-1033379,-24.842992207566,
51648,1575.1953125,128,8388607,201.666666666667,-1033379,-24.842992207566,
51680,1576.171875,128,8388607,201.666666666667,-730012,-17.5498848219575,
51712,1577.1484375,128,8388607,201.666666666667,-730012,-17.5498848219575,
51744,1578.125,128,8388607,201.666666666667,-1225969,-29.4729603695425,
51776,1579.1015625,128,8388607,201.666666666667,-1225969,-29.4729603695425,
51808,1580.078125,128,2130284,51.2131839450022,-797707,-19.1773093752832,
51840,1581.0546875,128,2130284,51.2131839450022,-797707,-19.1773093752832,
51872,1582.03125,128,-8388608,-201.66669070721,177031,4.25592135460234,
51904,1583.0078125,128,-8388608,-201.66669070721,177031,4.25592135460234,
