Date_Time,CH_3_mV,CH_4_mV
2019-03-13 01:10:59.044766,12.389486120877995,11.292564228284068
2019-03-13 01:10:59.044966,12.392370986029027,11.304560459203776
2019-03-13 01:10:59.045066,12.380951728139527,11.312902527598842
2019-03-13 01:10:59.049715,12.400737094967019,11.281000727137016
2019-03-13 01:10:59.049917,12.401915081570356,11.295545255606802
2019-03-13 01:10:59.050015,12.441557936854117,11.289366836075008
2019-03-13 01:10:59.050104,12.403477716860499,11.319898325590094
2019-03-13 01:10:59.052240,12.399751432707083,11.33098101587864
2019-03-13 01:10:59.052395,12.42535461092249,11.324730474718072
2019-03-13 01:10:59.052494,12.439778936677648,11.312830405970066
2019-03-13 01:10:59.054733,12.417493353385929,11.337255597582134
2019-03-13 01:10:59.054913,12.434682341577492,11.33965965187466
2019-03-13 01:10:59.055012,12.430403124936795,11.351655882794367
2019-03-13 01:10:59.055305,12.467858290814355,11.326581596523317
2019-03-13 01:10:59.070912,12.414921015292924,11.358868045671946
2019-03-13 01:10:59.071117,12.4581939925584,11.34047703033412
2019-03-13 01:10:59.071217,12.463915641774612,11.334731340574981
2019-03-13 01:10:59.071307,12.49478369889065,11.325571893720456
2019-03-13 01:10:59.078615,12.46696879072612,11.34792959864095
2019-03-13 01:10:59.078818,12.476873494411329,11.343914827972432
2019-03-13 01:10:59.078956,12.501274645480471,11.363796356971624
2019-03-13 01:10:59.095415,12.498534023586991,11.362233721681482
2019-03-13 01:10:59.095618,12.516324025351686,11.34929990958769
2019-03-13 01:10:59.095717,12.517502011955024,11.361199978335696
2019-03-13 01:10:59.095807,12.515218160377124,11.385841534834091
2019-03-13 01:10:59.098407,12.522502444883479,11.38158635873632
2019-03-13 01:10:59.098730,12.514088254859637,11.40625195577764
2019-03-13 01:10:59.098841,12.52081960687871,11.391755508393706
2019-03-13 01:10:59.100798,12.55712082669586,11.398174333354751
2019-03-13 01:10:59.100985,12.55300989385564,11.424763173830094
2019-03-13 01:10:59.101093,12.542792663112403,11.415603726975567
2019-03-13 01:10:59.101187,12.579382369444653,11.409232983100372
2019-03-13 01:10:59.119787,12.555894759006671,11.41502675394536
2019-03-13 01:10:59.119981,12.579190045101251,11.408968537128194
2019-03-13 01:10:59.120081,12.603062304226038,11.403415171712458
2019-03-13 01:10:59.122272,12.589166870415236,11.421445578906408
2019-03-13 01:10:59.122477,12.574502139230825,11.446135216490653
2019-03-13 01:10:59.122616,12.596427114378665,11.435821823575715
2019-03-13 01:10:59.122712,12.577194680038454,11.454429203799869
2019-03-13 01:10:59.124732,12.603495033998692,11.4549340552013
2019-03-13 01:10:59.124935,12.622655346710127,11.44397156762738
2019-03-13 01:10:59.125034,12.628401036469265,11.460391258445334
2019-03-13 01:10:59.126421,12.600850574276913,11.476474381662335
2019-03-13 01:10:59.126577,12.615851873062278,11.452530000908773
2019-03-13 01:10:59.126673,12.606596264036051,11.478613989982684
2019-03-13 01:10:59.126761,12.603470993455767,11.475825287003353
2019-03-13 01:10:59.129827,12.61513065677452,11.45918923129907
2019-03-13 01:10:59.130028,12.623689090055914,11.484479882456448
2019-03-13 01:10:59.130128,12.63518046957419,11.462627028937383
2019-03-13 01:10:59.144709,12.651984809078948,11.467915948380941
2019-03-13 01:10:59.144875,12.654773512058279,11.489576477556604
2019-03-13 01:10:59.144954,12.64659972746369,11.507318398235448
2019-03-13 01:10:59.145026,12.645421740860352,11.510347506644031
2019-03-13 01:10:59.147018,12.653162795682286,11.517175020834806
2019-03-13 01:10:59.147178,12.652730065909632,11.523377480909524
2019-03-13 01:10:59.147257,12.640589591732374,11.51715098029188
2019-03-13 01:10:59.147329,12.670279662245076,11.517126939748955
2019-03-13 01:10:59.149814,12.656552512234748,11.536359374089166
2019-03-13 01:10:59.150019,12.670832594732357,11.50710203334912
2019-03-13 01:10:59.150157,12.692973934766524,11.506501019775989
2019-03-13 01:10:59.152192,12.658499796211695,11.537633522864205
2019-03-13 01:10:59.152361,12.696027083718032,11.535181387485828
2019-03-13 01:10:59.152442,12.71172555824823,11.527921143522398
2019-03-13 01:10:59.152595,12.698863867783214,11.54806711849377
2019-03-13 01:10:59.154351,12.685016515058262,11.55299542979345
2019-03-13 01:10:59.154593,12.68217973099308,11.573309688565297
2019-03-13 01:10:59.154698,12.691146853504204,11.560015268327627
2019-03-13 01:10:59.169788,12.677780311637758,11.581627716417438
2019-03-13 01:10:59.169972,12.710114841872237,11.547442064377714
2019-03-13 01:10:59.170060,12.71405749091198,11.560015268327627
2019-03-13 01:10:59.170140,12.688959164098005,11.575064648198842
2019-03-13 01:10:59.172133,12.718721356239481,11.567035106861804
2019-03-13 01:10:59.172270,12.706220273918344,11.558140105979456
2019-03-13 01:10:59.172359,12.717038518234713,11.57862264855178
2019-03-13 01:10:59.174903,12.696868502720417,11.601749650845884
2019-03-13 01:10:59.175088,12.738242277094795,11.58583481142936
2019-03-13 01:10:59.175177,12.725332505543928,11.6146113413109
2019-03-13 01:10:59.175256,12.761393319931823,11.594345163624903
2019-03-13 01:10:59.178491,12.721678343019288,11.630958910500079
2019-03-13 01:10:59.178730,12.761585644275225,11.610524449013605
2019-03-13 01:10:59.178832,12.749084561954088,11.623458261107396
2019-03-13 01:10:59.178922,12.75877290075297,11.602110258989763
2019-03-13 01:10:59.196000,12.757378549263304,11.593720109508846
2019-03-13 01:10:59.196417,12.759662400841204,11.60780786766305
2019-03-13 01:10:59.196514,12.786155079144844,11.608120394721078
2019-03-13 01:10:59.198450,12.785938714258517,11.602134299532688
2019-03-13 01:10:59.198700,12.757066022205276,11.641416546672568
2019-03-13 01:10:59.198805,12.771394185788733,11.622568761019162
2019-03-13 01:10:59.198895,12.761032711787944,11.652643480218666
2019-03-13 01:10:59.200940,12.803776797109064,11.651441453072403
2019-03-13 01:10:59.201141,12.777837051292703,11.66586577882756
2019-03-13 01:10:59.201240,12.798247472236254,11.658076642919776
2019-03-13 01:10:59.218298,12.811349568130522,11.656009156228203
2019-03-13 01:10:59.218466,12.796011701744204,11.676299374457127
2019-03-13 01:10:59.218595,12.820893663671852,11.651345290900702
2019-03-13 01:10:59.218691,12.79831959386503,11.679520807209112
2019-03-13 01:10:59.221009,12.814186352195703,11.66449546788082
2019-03-13 01:10:59.221213,12.786900335975528,11.674111685050928
2019-03-13 01:10:59.221314,12.794641390797464,11.680434347840272
2019-03-13 01:10:59.223519,12.837746084262461,11.676756144772707
2019-03-13 01:10:59.223716,12.797478174862645,11.709835931837869
2019-03-13 01:10:59.223816,12.819932041954841,11.696397268342647
2019-03-13 01:10:59.223905,12.82389873153751,11.701854471586682
2019-03-13 01:10:59.227147,12.810964919443718,11.733539907162179
2019-03-13 01:10:59.227353,12.80928208143895,11.730054028438015
2019-03-13 01:10:59.227457,12.831639786359444,11.712696756445975
2019-03-13 01:10:59.227548,12.826615312888064,11.69485867359543
2019-03-13 01:10:59.244242,12.842241665789485,11.704018120449955
2019-03-13 01:10:59.244426,12.839332760095528,11.718418405662188
2019-03-13 01:10:59.244516,12.848492206950054,11.724789149537383
2019-03-13 01:10:59.247250,12.848516247492979,11.707984810032624
2019-03-13 01:10:59.247436,12.854790829196473,11.731881109700335
2019-03-13 01:10:59.247527,12.851184747757683,11.731087771783802
2019-03-13 01:10:59.253382,12.830461799756106,11.761426936955484
2019-03-13 01:10:59.253568,12.838539422178995,11.755801449910972
2019-03-13 01:10:59.253657,12.84724209871794,11.750656773724966
2019-03-13 01:10:59.253736,12.849742315182167,11.767773640287754
2019-03-13 01:10:59.268362,12.853709004764836,11.780034317179638
2019-03-13 01:10:59.268568,12.85048757201285,11.777678343972962
2019-03-13 01:10:59.268669,12.849910598982644,11.744911083965828
2019-03-13 01:10:59.268761,12.885081913282304,11.758782477233705
2019-03-13 01:10:59.271020,12.852434855989797,11.785491520423673
2019-03-13 01:10:59.271225,12.894722170995335,11.737626799459473
2019-03-13 01:10:59.271325,12.8846011024238,11.759864301665342
2019-03-13 01:10:59.272806,12.896453090085954,11.752075165757557
2019-03-13 01:10:59.273052,12.893351860048595,11.765922518482508
2019-03-13 01:10:59.273157,12.916695227229027,11.777197533114457
2019-03-13 01:10:59.273247,12.86957576309551,11.809580144434788
2019-03-13 01:10:59.275939,12.89616460357085,11.796093399853715
2019-03-13 01:10:59.276142,12.885009791653529,11.817152915456246
2019-03-13 01:10:59.276243,12.88154795347229,11.813066023158951
2019-03-13 01:10:59.294744,12.891765184215528,11.808786806518254
2019-03-13 01:10:59.294948,12.888327386577215,11.816551901883114
2019-03-13 01:10:59.295048,12.93611998591264,11.783159587759922
2019-03-13 01:10:59.295138,12.903737374592309,11.800829386809992
2019-03-13 01:10:59.297333,12.917127957001682,11.811287022982482
2019-03-13 01:10:59.297535,12.896356927914253,11.834125538761482
2019-03-13 01:10:59.297633,12.899169671436509,11.815301793651
2019-03-13 01:10:59.299113,12.951457852298958,11.818258780430808
2019-03-13 01:10:59.299298,12.920397470839518,11.849126837546846
2019-03-13 01:10:59.299399,12.92794620131805,11.85037694577896
2019-03-13 01:10:59.299489,12.912319848416628,11.854680202962582
2019-03-13 01:10:59.303603,12.935783418311686,11.863430960587378
2019-03-13 01:10:59.303807,12.925518106482599,11.87280677232823
2019-03-13 01:10:59.303907,12.938499999662241,11.865065717506296
2019-03-13 01:10:59.303998,12.946337216655877,11.82580751090934
2019-03-13 01:10:59.321076,12.929364593350641,11.861219230638254
2019-03-13 01:10:59.321276,12.938692324005643,11.856050513909322
2019-03-13 01:10:59.321374,12.919051200435703,11.868912204374338
2019-03-13 01:10:59.322875,12.967204407915006,11.832274416956237
2019-03-13 01:10:59.323031,12.961025988383213,11.85946427100471
2019-03-13 01:10:59.323129,12.936192107541416,11.872229799298024
2019-03-13 01:10:59.323218,12.96073750186811,11.868046744829028
2019-03-13 01:10:59.326153,12.96677167814235,11.877422556569881
2019-03-13 01:10:59.326353,12.978070733317224,11.881269043437923
2019-03-13 01:10:59.326453,12.99037949129496,11.882254705697859
2019-03-13 01:10:59.346665,12.964151258963497,11.907593437941086
2019-03-13 01:10:59.346869,12.963670448104992,11.922017763696246
2019-03-13 01:10:59.346969,12.96357428593329,11.904035437588147
2019-03-13 01:10:59.347058,12.95794879888878,11.922474534011826
2019-03-13 01:10:59.348479,12.972805854416592,11.914084384530907
2019-03-13 01:10:59.348690,12.973503030161424,11.914204587245534
2019-03-13 01:10:59.348792,13.00453937107794,11.897159842311522
2019-03-13 01:10:59.353607,12.973094340931695,11.91473347918989
2019-03-13 01:10:59.353810,12.982566314844249,11.925623845135036
2019-03-13 01:10:59.353908,12.975426273595446,11.941226157493531
2019-03-13 01:10:59.353998,12.998937924576353,11.933893791901326
2019-03-13 01:10:59.369638,12.97727739540069,11.947092049967296
2019-03-13 01:10:59.369841,12.978239017117701,11.947164171596071
2019-03-13 01:10:59.369941,12.9963175053975,11.945000522732798
2019-03-13 01:10:59.372417,12.973863638305303,11.941899292695439
2019-03-13 01:10:59.372620,13.002592087100993,11.911488005894979
2019-03-13 01:10:59.372718,13.001486222126431,11.91752218216922
2019-03-13 01:10:59.372808,13.0329552928156,11.929830940146957
2019-03-13 01:10:59.374883,13.02742596794279,11.941899292695439
2019-03-13 01:10:59.375087,13.038292293345009,11.94103383315013
2019-03-13 01:10:59.375185,13.0146844801924,11.961708700065856
2019-03-13 01:10:59.375274,13.023122710759168,11.960386470204966
2019-03-13 01:10:59.377314,13.00458745216379,11.98671086470813
2019-03-13 01:10:59.377513,13.03615268502466,11.98041224246171
2019-03-13 01:10:59.377611,13.01189577721307,11.992793122068221
2019-03-13 01:10:59.379762,13.014852763992877,11.988513905427524
2019-03-13 01:10:59.379993,13.025887373195573,11.988273499998272
2019-03-13 01:10:59.380148,13.016655804712272,11.991687257093659
2019-03-13 01:10:59.380248,13.018555007603368,12.006183704477593
2019-03-13 01:10:59.393631,13.054375416562012,11.968367930456154
2019-03-13 01:10:59.393826,12.993192234817215,11.994091311386185
2019-03-13 01:10:59.394006,13.023964129761552,11.993129689669175
2019-03-13 01:10:59.420929,13.023459278360122,12.008611799313044
2019-03-13 01:10:59.421095,13.029637697891914,12.013516070069798
2019-03-13 01:10:59.421174,13.027906778801295,12.008996447999849
2019-03-13 01:10:59.421245,13.036585414797315,12.02827696342591
2019-03-13 01:10:59.423475,13.02879627888953,12.031810923235923
2019-03-13 01:10:59.423642,13.069136309918123,12.02366117918426
2019-03-13 01:10:59.423721,13.038268252802084,12.041451180948954
2019-03-13 01:10:59.425946,13.049182659290155,12.033229315268514
2019-03-13 01:10:59.426070,13.052981065072347,12.041210775519701
2019-03-13 01:10:59.426149,13.046538199568376,12.037676815709688
2019-03-13 01:10:59.426220,13.07514644564944,12.046331411162784
2019-03-13 01:10:59.428492,13.057981498000801,12.062366453293935
2019-03-13 01:10:59.428659,13.05002407829254,12.066236980704902
2019-03-13 01:10:59.428738,13.068463174716216,12.054961966072954
2019-03-13 01:10:59.444842,13.039782807006375,12.075348346473577
2019-03-13 01:10:59.445043,13.05976049817727,12.065491723874219
2019-03-13 01:10:59.445142,13.030935887209878,12.087296496307433
2019-03-13 01:10:59.445233,13.095460704421287,12.062871304695365
2019-03-13 01:10:59.447230,13.073151080586642,12.087200334135732
2019-03-13 01:10:59.447368,13.081228703009531,12.076334008733513
2019-03-13 01:10:59.447454,13.062236674098573,12.09208056434956
2019-03-13 01:10:59.449681,13.046538199568376,12.090806415574521
2019-03-13 01:10:59.449855,13.092984528499985,12.073136616524453
2019-03-13 01:10:59.449943,13.066299525852942,12.087536901736685
2019-03-13 01:10:59.450021,13.087551365798875,12.070347913545122
2019-03-13 01:10:59.452146,13.086421460281388,12.084243347355924
2019-03-13 01:10:59.452283,13.08346447350158,12.107081863134924
2019-03-13 01:10:59.452369,13.07423290501828,12.100903443603132
2019-03-13 01:10:59.452449,13.098249407400617,12.104725889928249
2019-03-13 01:10:59.454638,13.085171352049274,12.119751229256538
2019-03-13 01:10:59.454775,13.083969324903011,12.120207999572118
2019-03-13 01:10:59.454863,13.080243040749595,12.123068824180224
2019-03-13 01:10:59.468575,13.113034341299654,12.11253906637896
2019-03-13 01:10:59.468776,13.099235069660553,12.12395832426846
2019-03-13 01:10:59.468875,13.101470840152603,12.113620890810596
2019-03-13 01:10:59.468965,13.079449702833061,12.11802031016592
2019-03-13 01:10:59.470919,13.120150342005532,12.112707350179436
2019-03-13 01:10:59.471121,13.088921676745615,12.143118636979894
2019-03-13 01:10:59.471221,13.122963085527788,12.108235809195337
2019-03-13 01:10:59.471310,13.086854190054042,12.129223203169092
2019-03-13 01:10:59.473133,13.122073585439553,12.12359771612458
2019-03-13 01:10:59.473335,13.130367572748769,12.13044927085828
2019-03-13 01:10:59.473434,13.095628988221764,12.168000598907543
2019-03-13 01:10:59.477207,13.117337598483276,12.15826417902281
2019-03-13 01:10:59.477367,13.114813341476124,12.164731085069706
2019-03-13 01:10:59.477453,13.093176852843387,12.182328762491
2019-03-13 01:10:59.477532,13.097047380254354,12.16049994951486
2019-03-13 01:10:59.493049,13.096350204509521,12.164634922898005
2019-03-13 01:10:59.493250,13.124886328961809,12.164995531041884
2019-03-13 01:10:59.493348,13.13873368168676,12.16771211239244
2019-03-13 01:10:59.496036,13.125751788507118,12.157735287078454
2019-03-13 01:10:59.496235,13.136666194995188,12.182881694978281
2019-03-13 01:10:59.496334,13.156283278022203,12.17684751870404
2019-03-13 01:10:59.498580,13.111543827638288,12.210840846400362
2019-03-13 01:10:59.498806,13.119597409518251,12.199926439912293
2019-03-13 01:10:59.498910,13.130247370034143,12.199157142538684
2019-03-13 01:10:59.499000,13.116784665995995,12.200383210227873
2019-03-13 01:10:59.499087,13.141594506294867,12.19050254708559
2019-03-13 01:10:59.517894,13.147556560940332,12.19470964209751
2019-03-13 01:10:59.518094,13.14777292582666,12.191993060746956
2019-03-13 01:10:59.518193,13.14786908799836,12.18228068140515
2019-03-13 01:10:59.522395,13.13919045200234,12.208460832650761
2019-03-13 01:10:59.522733,13.18234322655319,12.193363371693696
2019-03-13 01:10:59.522840,13.184458794330613,12.191632452603077
2019-03-13 01:10:59.522931,13.174409847387853,12.19507025024139
2019-03-13 01:10:59.525750,13.163255035470529,12.223245766549798
2019-03-13 01:10:59.525810,13.172510644496757,12.22024069868414
2019-03-13 01:10:59.525835,13.190300646261452,12.214879657611807
2019-03-13 01:10:59.542788,13.180323820947468,12.228799131965534
2019-03-13 01:10:59.542946,13.213235324212153,12.214278644038675
2019-03-13 01:10:59.543018,13.188978416400563,12.23572280832801
2019-03-13 01:10:59.547388,13.198690795742369,12.221082117686525
2019-03-13 01:10:59.547572,13.172630847211384,12.251132796343104
2019-03-13 01:10:59.547660,13.172558725582608,12.23709311927475
2019-03-13 01:10:59.547740,13.191839241008669,12.233150470235007
2019-03-13 01:10:59.551161,13.187391740567495,12.242430119804158
2019-03-13 01:10:59.551345,13.171044171378316,12.263874284093493
2019-03-13 01:10:59.551433,13.192752781639829,12.255243729183324
2019-03-13 01:10:59.551514,13.198041701083387,12.261277905457565
2019-03-13 01:10:59.551593,13.187920632511851,12.260268202654704
2019-03-13 01:10:59.551669,13.188978416400563,12.279043866679334
2019-03-13 01:10:59.551746,13.216576959678765,12.256301513072035
2019-03-13 01:10:59.570472,13.217730905739177,12.268682392678546
2019-03-13 01:10:59.570674,13.215831702848082,12.279596799166615
2019-03-13 01:10:59.570775,13.21152844566446,12.274572325695235
2019-03-13 01:10:59.570866,13.214605635158893,12.281616204772337
2019-03-13 01:10:59.574898,13.1970079577376,12.280702664141177
2019-03-13 01:10:59.575103,13.228212582454592,12.282529745403497
2019-03-13 01:10:59.575202,13.218812730170814,12.270725838827193
2019-03-13 01:10:59.575316,13.248719165569842,12.278803461250082
2019-03-13 01:10:59.595961,13.244704394901323,12.285582894355006
2019-03-13 01:10:59.596165,13.252709895695435,12.284525110466294
2019-03-13 01:10:59.596265,13.249320179142973,12.289357259594272
2019-03-13 01:10:59.596355,13.229174204171603,12.31185920777232
2019-03-13 01:10:59.596440,13.236963340079388,12.305993315298556
2019-03-13 01:10:59.596526,13.261460653320231,12.306185639641958
2019-03-13 01:10:59.596612,13.247084408650924,12.310681221168982
2019-03-13 01:10:59.597795,13.258383463825798,12.303877747521133
2019-03-13 01:10:59.597975,13.257518004280488,12.307267464073595
2019-03-13 01:10:59.598074,13.286871507192235,12.318013586761188
2019-03-13 01:10:59.601052,13.272206776007824,12.315994181155466
2019-03-13 01:10:59.601256,13.249680787286852,12.340515534939234
2019-03-13 01:10:59.601355,13.275404168216884,12.308493531762783
2019-03-13 01:10:59.603718,13.284371290728007,12.327173033615713
2019-03-13 01:10:59.603921,13.286631101762982,12.337077737300921
2019-03-13 01:10:59.604021,13.287111912621487,12.345443846238913
2019-03-13 01:10:59.604111,13.27689468187825,12.3556129958963
2019-03-13 01:10:59.619877,13.275764776360763,12.360565347738904
2019-03-13 01:10:59.620085,13.275644573646137,12.359675847650669
2019-03-13 01:10:59.620186,13.289203439855985,12.350300035909816
2019-03-13 01:10:59.620276,13.293771143011787,12.328375060761976
2019-03-13 01:10:59.621750,13.302714224979985,12.324216046835906
2019-03-13 01:10:59.621952,13.289059196598433,12.347775778902664
2019-03-13 01:10:59.622052,13.286462817962505,12.356214009469431
2019-03-13 01:10:59.624795,13.323773740582515,12.33282256120315
2019-03-13 01:10:59.624997,13.292593156408449,12.372922186802489
2019-03-13 01:10:59.625096,13.303098873666789,12.370662375767514
2019-03-13 01:10:59.625184,13.304829792757408,12.37758605212999
2019-03-13 01:10:59.627225,13.294420237670769,12.383956796005185
2019-03-13 01:10:59.627419,13.315840361417179,12.378331308960673
2019-03-13 01:10:59.627563,13.328485686995867,12.380350714566395
2019-03-13 01:10:59.643473,13.325240213700956,12.396097270182443
2019-03-13 01:10:59.643676,13.290790115689054,12.4193685157341
2019-03-13 01:10:59.643776,13.290549710259802,12.409680176935217
2019-03-13 01:10:59.643957,13.324855565014152,12.387250350385946
2019-03-13 01:10:59.645930,13.319254118512566,12.410329271594199
2019-03-13 01:10:59.646132,13.315431672187449,12.379028484705506
2019-03-13 01:10:59.646255,13.30999850948634,12.397756067644286
2019-03-13 01:10:59.648584,13.359401825197756,12.387466715272273
2019-03-13 01:10:59.648786,13.315191266758196,12.417902042615658
2019-03-13 01:10:59.648884,13.33964049891319,12.406290460382754
2019-03-13 01:10:59.648973,13.312474685407642,12.432999503572724
2019-03-13 01:10:59.650470,13.348054688937031,12.414680609863671
2019-03-13 01:10:59.650705,13.32826932210954,12.434393855062389
2019-03-13 01:10:59.650807,13.354233108468824,12.420041650936007
2019-03-13 01:10:59.669716,13.30507019818666,12.447519991499583
2019-03-13 01:10:59.669958,13.355819784301891,12.413526663803259
2019-03-13 01:10:59.670067,13.339063525882983,12.419849326592605
2019-03-13 01:10:59.670157,13.332211971149283,12.423239043145067
2019-03-13 01:10:59.672162,13.347285391563423,12.426051786667323
2019-03-13 01:10:59.672365,13.369234407254188,12.441942585540922
2019-03-13 01:10:59.672462,13.350266418886156,12.428984732904205
2019-03-13 01:10:59.672551,13.347189229391722,12.442134909884324
2019-03-13 01:10:59.674105,13.356396757332098,12.458073789843773
2019-03-13 01:10:59.674263,13.360074960399663,12.45499660034934
2019-03-13 01:10:59.674362,13.334591984898884,12.476825413325479
2019-03-13 01:10:59.678382,13.345001539985523,12.469084358503544
2019-03-13 01:10:59.678624,13.337573012221617,12.474589642833429
2019-03-13 01:10:59.678727,13.38312984106499,12.455405289579069
2019-03-13 01:10:59.678816,13.390870895886925,12.45554953283662
2019-03-13 01:10:59.698496,13.388707247023651,12.458554600702278
2019-03-13 01:10:59.698750,13.366998636762139,12.467810209728505
2019-03-13 01:10:59.698850,13.382456705863083,12.461751992911339
2019-03-13 01:10:59.700972,13.404117235038745,12.461463506396235
2019-03-13 01:10:59.701164,13.388803409195353,12.471560534424846
2019-03-13 01:10:59.701264,13.39765032899185,12.468964155788917
2019-03-13 01:10:59.701352,13.398371545279607,12.491442063424039
2019-03-13 01:10:59.703464,13.37394635366754,12.51067449776425
2019-03-13 01:10:59.703667,13.398179220936205,12.501779496881902
2019-03-13 01:10:59.703767,13.373008772493455,12.511828443824662
2019-03-13 01:10:59.718676,13.371638461546715,12.51401613323086
2019-03-13 01:10:59.718880,13.382817314006962,12.499159077703048
2019-03-13 01:10:59.718980,13.400919842829685,12.487042644068715
2019-03-13 01:10:59.719069,13.410199492398837,12.507597308269816
2019-03-13 01:10:59.721099,13.366974596219213,12.537311419325441
2019-03-13 01:10:59.721303,13.392770098778021,12.509111862474107
2019-03-13 01:10:59.721405,13.428422223936188,12.48879760370226
2019-03-13 01:10:59.723178,13.396352139673885,12.523632350400966
2019-03-13 01:10:59.723381,13.42121006105861,12.529522283417656
2019-03-13 01:10:59.723481,13.426523021045092,12.52771924269826
2019-03-13 01:10:59.723570,13.423301588293107,12.531950378253107
2019-03-13 01:10:59.744905,13.435994994957646,12.544090852430367
2019-03-13 01:10:59.745107,13.417724182334446,12.555510110319867
2019-03-13 01:10:59.745206,13.42633069670169,12.538249000499526
2019-03-13 01:10:59.745297,13.440009765626165,12.510049443648192
2019-03-13 01:10:59.747185,13.411882330403605,12.54889896101542
2019-03-13 01:10:59.747389,13.438447130336023,12.54214356845342
2019-03-13 01:10:59.747523,13.455275510383707,12.53899425733021
2019-03-13 01:10:59.747625,13.443471603807403,12.542383973882673
2019-03-13 01:10:59.749162,13.43551418409914,12.538850014072658
2019-03-13 01:10:59.749348,13.440971387343176,12.541975284652944
2019-03-13 01:10:59.752067,13.419214695995812,12.56584754377773
2019-03-13 01:10:59.752206,13.444168779552236,12.563130962427175
2019-03-13 01:10:59.752295,13.42861454827959,12.578276504470091
2019-03-13 01:10:59.752376,13.440250171055418,12.587291708067065
2019-03-13 01:10:59.752455,13.457607443047458,12.567025530381068
2019-03-13 01:10:59.754066,13.450299117998178,12.563948340886634
2019-03-13 01:10:59.754351,13.457463199789906,12.561111556821453
2019-03-13 01:10:59.754451,13.441836846888485,12.58447896454481
2019-03-13 01:10:59.770872,13.469771957767641,12.57305970665531
2019-03-13 01:10:59.771064,13.471743282287512,12.570559490191082
2019-03-13 01:10:59.771165,13.465420619498168,12.561159637907304
2019-03-13 01:10:59.779774,13.469940241568118,12.588902424443058
2019-03-13 01:10:59.779978,13.467127498045862,12.58594543766325
2019-03-13 01:10:59.780079,13.502443055603074,12.56219338125309
2019-03-13 01:10:59.780169,13.491336324771602,12.588902424443058
2019-03-13 01:10:59.792923,13.476671593587191,12.595201046689477
2019-03-13 01:10:59.793041,13.484508810580827,12.597196411752273
2019-03-13 01:10:59.793108,13.50804450210466,12.583829869885827
2019-03-13 01:10:59.793167,13.505135596410703,12.604697061144956
2019-03-13 01:10:59.795973,13.50261133940355,12.592604668053548
2019-03-13 01:10:59.796119,13.46917094419451,12.606476061321425
2019-03-13 01:10:59.796185,13.50023132565395,12.599888952559903
2019-03-13 01:10:59.796245,13.496961811816114,12.605153831460536
2019-03-13 01:10:59.796303,13.51621828669925,12.603879682685497
2019-03-13 01:10:59.796360,13.507972380475884,12.610442750904094
2019-03-13 01:10:59.796418,13.529176139335966,12.620179170788825
2019-03-13 01:10:59.802360,13.547302708701617,12.61700581912269
2019-03-13 01:10:59.802577,13.52590662549813,12.622102414222846
2019-03-13 01:10:59.802692,13.512251597116581,12.63431501002888
2019-03-13 01:10:59.817799,13.524680557808942,12.626309509234767
2019-03-13 01:10:59.818002,13.504318217951244,12.645085173259398
2019-03-13 01:10:59.818103,13.543384100204799,12.619818562644946
2019-03-13 01:10:59.820897,13.534801626380478,12.649220146642543
2019-03-13 01:10:59.821054,13.541340654056151,12.624482427972447
2019-03-13 01:10:59.821153,13.533238991090336,12.636815226493107
2019-03-13 01:10:59.821241,13.558361358447238,12.625948901090888
2019-03-13 01:10:59.821327,13.541581059485404,12.635805523690246
2019-03-13 01:10:59.824935,13.571150927283478,12.637223915722837
2019-03-13 01:10:59.825140,13.557976709760434,12.643546578512181
2019-03-13 01:10:59.825240,13.588940929048173,12.649027822299141
2019-03-13 01:10:59.825330,13.592114280714307,12.652393498308678
2019-03-13 01:10:59.825416,13.562039561514803,12.663067499367495
2019-03-13 01:10:59.825501,13.562111683143579,12.653787849798343
2019-03-13 01:10:59.842976,13.588508199275518,12.649316308814244
2019-03-13 01:10:59.843198,13.563866642777123,12.655566849974813
2019-03-13 01:10:59.843321,13.575790752068054,12.655951498661617
2019-03-13 01:10:59.843415,13.59418176740588,12.669991175729972
2019-03-13 01:10:59.845970,13.584781915122102,12.648571051983561
2019-03-13 01:10:59.846173,13.569371927107008,12.670496027131403
2019-03-13 01:10:59.846274,13.565260994266788,12.679078500955722
2019-03-13 01:10:59.846363,13.577810157673776,12.664582053571786
2019-03-13 01:10:59.849044,13.58281059060223,12.68477610962901
2019-03-13 01:10:59.849199,13.586152226068842,12.696988705435043
2019-03-13 01:10:59.849299,13.585286766523533,12.69446444842789
2019-03-13 01:10:59.853547,13.60473556575007,12.702974800623434
2019-03-13 01:10:59.853750,13.613197836859763,12.709634031013731
2019-03-13 01:10:59.853848,13.574564684378865,12.720548437501801
2019-03-13 01:10:59.853937,13.56951617036456,12.698887908326139
2019-03-13 01:10:59.869029,13.59189791582798,12.702518030307854
2019-03-13 01:10:59.869243,13.592619132115738,12.710787977074144
2019-03-13 01:10:59.869345,13.59697047038521,12.704032584512145
2019-03-13 01:10:59.871982,13.596393497355004,12.718697315696556
2019-03-13 01:10:59.872149,13.614351782920176,12.690473718302297
2019-03-13 01:10:59.872249,13.622573648600616,12.700186097644103
2019-03-13 01:10:59.872338,13.630963798081533,12.73374669556777
2019-03-13 01:10:59.874342,13.62250152697184,12.731727289962048
2019-03-13 01:10:59.874417,13.614832593778681,12.729515560012924
2019-03-13 01:10:59.874453,13.599807254450392,12.749252845754565
2019-03-13 01:10:59.893356,13.607692552529878,12.754565805741048
2019-03-13 01:10:59.893541,13.634305433548144,12.740910777359499
2019-03-13 01:10:59.893630,13.62158798634068,12.747281521234694
2019-03-13 01:10:59.893710,13.600792916710327,12.760263414414336
2019-03-13 01:10:59.895736,13.592066199628457,12.735549736287165
2019-03-13 01:10:59.895891,13.618655040103798,12.727087465177473
2019-03-13 01:10:59.895990,13.616779877755627,12.750695278330081
2019-03-13 01:10:59.898492,13.601610295169786,12.743314831652025
2019-03-13 01:10:59.898732,13.638560609645916,12.74927688629749
2019-03-13 01:10:59.898834,13.625314270494096,12.771682672303836
2019-03-13 01:10:59.898925,13.650436637850996,12.759037346725147
2019-03-13 01:10:59.900970,13.62250152697184,12.783414457251364
2019-03-13 01:10:59.901152,13.650196232421743,12.771394185788733
2019-03-13 01:10:59.901253,13.613943093690446,12.789280349725129
2019-03-13 01:10:59.923362,13.645075596778662,12.77343763193738
2019-03-13 01:10:59.923567,13.629208838447989,12.784376078968375
2019-03-13 01:10:59.923668,13.647647934871665,12.757811279035959
2019-03-13 01:10:59.923758,13.615625931695215,12.776731186318141
2019-03-13 01:10:59.926075,13.652480083999643,12.761657765904001
2019-03-13 01:10:59.926277,13.65726415204177,12.784688606026403
2019-03-13 01:10:59.926374,13.617116445356581,12.784712646569329
2019-03-13 01:10:59.928573,13.637598987928905,12.779688173097949
2019-03-13 01:10:59.928779,13.63707009598455,12.79978606698347
2019-03-13 01:10:59.928879,13.636324839153867,12.803175783535933
2019-03-13 01:10:59.928969,13.657336273670547,12.795891499029578
2019-03-13 01:10:59.944620,13.643633164203147,12.810099459898408
2019-03-13 01:10:59.944788,13.650100070250042,12.820653258242599
2019-03-13 01:10:59.944887,13.643825488546549,12.804786499911925
2019-03-13 01:10:59.947240,13.667216936812832,12.80425760796757
2019-03-13 01:10:59.947377,13.64803258355847,12.816518284859454
2019-03-13 01:10:59.947464,13.641998407284229,12.802142040190146
2019-03-13 01:10:59.947543,13.651398259568007,12.81202270333243
2019-03-13 01:10:59.949824,13.685896438665761,12.801757391503342
2019-03-13 01:10:59.950007,13.681521059853363,12.821326393444506
2019-03-13 01:10:59.950095,13.673178991458297,12.808681067865818
2019-03-13 01:10:59.950174,13.672842423857343,12.833899597394419
2019-03-13 01:10:59.952286,13.68402127631759,12.826663393973915
2019-03-13 01:10:59.952471,13.659283557647493,12.850800099070879
2019-03-13 01:10:59.952560,13.678876600131584,12.835221827255308
2019-03-13 01:10:59.968421,13.673275153629998,12.850199085497747
2019-03-13 01:10:59.968608,13.698205196643496,12.837481638290283
2019-03-13 01:10:59.968698,13.685704114322359,12.827240367004121
2019-03-13 01:10:59.968777,13.69493568280566,12.82719228591827
2019-03-13 01:10:59.970869,13.690295858021084,12.847722909576445
2019-03-13 01:10:59.971055,13.666231274552896,12.860632681127312
2019-03-13 01:10:59.971142,13.705657764950328,12.829452096953245
2019-03-13 01:10:59.973305,13.682963492428879,12.844164909223506
2019-03-13 01:10:59.973502,13.707412724583872,12.860368235155134
2019-03-13 01:10:59.973602,13.68625704680964,12.864166640937325
2019-03-13 01:10:59.973692,13.68630512789549,12.86094520818534
2019-03-13 01:10:59.977270,13.669572910019507,12.88053825066943
2019-03-13 01:10:59.977475,13.725875861550474,12.86318097867739
2019-03-13 01:10:59.977574,13.713302657600561,12.876234993485808
2019-03-13 01:10:59.977664,13.700056318448741,12.859743181039077
2019-03-13 01:10:59.995459,13.70813394087163,12.85048757201285
2019-03-13 01:10:59.995653,13.721500482738076,12.857627613261654
2019-03-13 01:10:59.995753,13.70635494069516,12.889890021867357
2019-03-13 01:10:59.998368,13.733400551486081,12.851449193729861
2019-03-13 01:10:59.998522,13.740035741333454,12.885009791653529
2019-03-13 01:10:59.998658,13.741790700966998,12.881187345328412
2019-03-13 01:10:59.998751,13.704720183776242,12.905011523367348
2019-03-13 01:11:00.000724,13.72452959114666,12.887870616261635
2019-03-13 01:11:00.000988,13.719024306816774,12.905780820740956
2019-03-13 01:11:00.001150,13.759676864903394,12.886307980971493
2019-03-13 01:11:00.004606,13.758066148527401,12.890274670554161
2019-03-13 01:11:00.004784,13.743641822772243,12.895419346740168
2019-03-13 01:11:00.004817,13.72284675314189,12.916647146143177
2019-03-13 01:11:00.004855,13.756311188893857,12.875369533940498
2019-03-13 01:11:00.019769,13.745757390549667,12.896092481942075
2019-03-13 01:11:00.019969,13.768692068500368,12.894553887194858
2019-03-13 01:11:00.020069,13.75705644572454,12.899987049895968
2019-03-13 01:11:00.022144,13.746719012266677,12.899241793065285
2019-03-13 01:11:00.022335,13.77020662270466,12.9074396182028
2019-03-13 01:11:00.022443,13.776096555721349,12.901429482471483
2019-03-13 01:11:00.022534,13.76842762252819,12.932273499044598
2019-03-13 01:11:00.025980,13.773163609484467,12.912800659275133
2019-03-13 01:11:00.026182,13.788789962385888,12.92018110595319
2019-03-13 01:11:00.026281,13.773211690570317,12.9347496749659
2019-03-13 01:11:00.043155,13.773548258171271,12.934869877680526
2019-03-13 01:11:00.043374,13.80523369374677,12.904867280109796
2019-03-13 01:11:00.043478,13.803695098999553,12.90575678019803
2019-03-13 01:11:00.043570,13.780664258877149,12.935879580483387
2019-03-13 01:11:00.046138,13.821581262935949,12.902631509617747
2019-03-13 01:11:00.046342,13.791242097764266,12.94881339257718
2019-03-13 01:11:00.046442,13.818047303125935,12.920277268124892
2019-03-13 01:11:00.046533,13.791843111337398,12.947443081630439
2019-03-13 01:11:00.047950,13.786554191893838,12.960016285580352
2019-03-13 01:11:00.048127,13.82482673623086,12.9438850812775
2019-03-13 01:11:00.048226,13.822302479223707,12.949943298094666
2019-03-13 01:11:00.052099,13.779462231730886,12.96845451614712
2019-03-13 01:11:00.052254,13.793477868256316,12.958525771918985
2019-03-13 01:11:00.052351,13.850790522590144,12.927705795888798
2019-03-13 01:11:00.071154,13.843169670482835,12.957708393459527
2019-03-13 01:11:00.071406,13.866537078206191,12.94109637829817
2019-03-13 01:11:00.071539,13.832880318110822,12.958597893547761
2019-03-13 01:11:00.071634,13.84949233327218,12.943644675848248
2019-03-13 01:11:00.071723,13.841102183791262,12.958285366489733
2019-03-13 01:11:00.072758,13.860406739760249,12.950111581895143
2019-03-13 01:11:00.072924,13.851631941592528,12.97727739540069
2019-03-13 01:11:00.073023,13.858868145013032,12.96982482709386
2019-03-13 01:11:00.075923,13.837399940180772,12.982133585071594
2019-03-13 01:11:00.076125,13.862522307537672,12.98275863918765
2019-03-13 01:11:00.076226,13.872258727422404,12.967444813344258
2019-03-13 01:11:00.094783,13.837448021266622,12.990812221067614
2019-03-13 01:11:00.094953,13.842256129851675,13.003553708818004
2019-03-13 01:11:00.095043,13.835116088602872,12.99814458665982
2019-03-13 01:11:00.095122,13.895025121572628,12.97489738165109
2019-03-13 01:11:00.097313,13.86141644256311,12.979441044263964
2019-03-13 01:11:00.097489,13.904833663086135,12.957804555631228
2019-03-13 01:11:00.097578,13.915315339801552,12.979681449693217
2019-03-13 01:11:00.099748,13.893702891711738,12.98179701747064
2019-03-13 01:11:00.099930,13.890409337330977,13.008433939031832
2019-03-13 01:11:00.100018,13.894087540398543,13.001293897783029
2019-03-13 01:11:00.100098,13.878701592926374,13.013482453046137
2019-03-13 01:11:00.102015,13.902261324993132,12.997110843314033
2019-03-13 01:11:00.102153,13.877090876550382,13.025502724508769
2019-03-13 01:11:00.102241,13.907670447151316,13.000091870636766
2019-03-13 01:11:00.121039,13.874374295199827,13.017978034573161
2019-03-13 01:11:00.121230,13.901540108705374,13.005597154966651
2019-03-13 01:11:00.121314,13.918488691467687,13.003770073704331
2019-03-13 01:11:00.121386,13.917743434637003,13.002616127643918
2019-03-13 01:11:00.123416,13.929619462842084,13.011342844725789
2019-03-13 01:11:00.123574,13.918849299611566,13.022209170128008
2019-03-13 01:11:00.123652,13.919354151012996,13.016535601997646
2019-03-13 01:11:00.123724,13.906804987606007,13.033003373901451
2019-03-13 01:11:00.126015,13.92786450320854,13.024060291933253
2019-03-13 01:11:00.126139,13.906756906520156,13.035118941678874
2019-03-13 01:11:00.126219,13.930797449445421,13.019107940090649
2019-03-13 01:11:00.129809,13.928080868094867,13.04194645586965
2019-03-13 01:11:00.129976,13.939932855757021,13.031753265669337
2019-03-13 01:11:00.130057,13.935990206717278,13.039542401577123
2019-03-13 01:11:00.130129,13.9333457469955,13.019107940090649
2019-03-13 01:11:00.145925,13.930989773788824,13.025406562337068
2019-03-13 01:11:00.146133,13.926301867918397,13.043100401930063
2019-03-13 01:11:00.146234,13.948202802523312,13.035888239052483
2019-03-13 01:11:00.148447,13.954886073456535,13.019059859004798
2019-03-13 01:11:00.148715,13.96673806111869,13.041273320667743
2019-03-13 01:11:00.148887,13.944716923799149,13.0510337810954
2019-03-13 01:11:00.149050,13.969382520840469,13.045215969707487
2019-03-13 01:11:00.151008,13.9424811533071,13.068270850372814
2019-03-13 01:11:00.151164,13.924570948827778,13.07803131080047
2019-03-13 01:11:00.151263,13.947914316008209,13.061827984868843
2019-03-13 01:11:00.168482,13.946712288861946,13.076084026823525
2019-03-13 01:11:00.168685,13.970584547986732,13.068727620688394
2019-03-13 01:11:00.168783,13.963973398682285,13.053966727332282
2019-03-13 01:11:00.168873,13.967290993605971,13.048485483545322
2019-03-13 01:11:00.173505,13.974238710511372,13.061731822697142
2019-03-13 01:11:00.173706,13.971906777847622,13.073631891445148
2019-03-13 01:11:00.173805,13.982604819449364,13.062549201156601
2019-03-13 01:11:00.173893,13.984023211481954,13.07574745922257
2019-03-13 01:11:00.175487,13.991547901417562,13.086445500824313
2019-03-13 01:11:00.175642,13.982196130219634,13.084450135761516
2019-03-13 01:11:00.175741,13.995658834257782,13.086229135937986
2019-03-13 01:11:00.178484,13.986667671203733,13.091662298639095
2019-03-13 01:11:00.178728,13.984768468312637,13.098922542602525
2019-03-13 01:11:00.178830,13.998279253436635,13.076035945737674
2019-03-13 01:11:00.194758,14.007198294861908,13.086084892680434
2019-03-13 01:11:00.194939,14.001837253789574,13.098465772286945
2019-03-13 01:11:00.195028,13.997197429004999,13.08889763620269
2019-03-13 01:11:00.195107,14.004842321655232,13.090195825520654
2019-03-13 01:11:00.197162,14.00693384888973,13.09392210967407
2019-03-13 01:11:00.197328,14.000394821214059,13.09118148778059
2019-03-13 01:11:00.197416,14.008111835493068,13.097600312741635
2019-03-13 01:11:00.197496,14.010972660101174,13.114765260390273
2019-03-13 01:11:00.199741,13.99734167226255,13.116616382195518
2019-03-13 01:11:00.199879,14.03794614926332,13.097600312741635
2019-03-13 01:11:00.199966,14.009097497753004,13.119188720288522
2019-03-13 01:11:00.218482,14.001933415961275,13.120438828520635
2019-03-13 01:11:00.218736,14.00556353794299,13.126545126423652
2019-03-13 01:11:00.218837,14.021742823331692,13.093946150216995
2019-03-13 01:11:00.218927,13.998591780494664,13.107793502941947
2019-03-13 01:11:00.222192,14.024363242510546,13.10219205644036
2019-03-13 01:11:00.222392,14.055760191570942,13.106928043396637
2019-03-13 01:11:00.222492,14.038547162836451,13.105726016250374
2019-03-13 01:11:00.222621,14.03429198673868,13.114332530617618
2019-03-13 01:11:00.229865,14.037369176233113,13.104355705303634
2019-03-13 01:11:00.230101,14.063909935622606,13.110534124835427
2019-03-13 01:11:00.230264,14.035734419314196,13.132651424326669
2019-03-13 01:11:00.244099,14.045278514855527,13.116880828167696
2019-03-13 01:11:00.244266,14.069415219952491,13.114332530617618
2019-03-13 01:11:00.244365,14.064967719511317,13.120607112321112
2019-03-13 01:11:00.244455,14.071771193159167,13.107889665113648
2019-03-13 01:11:00.248414,14.04551892028478,13.143637952443514
2019-03-13 01:11:00.248617,14.08210862661703,13.105894300050851
2019-03-13 01:11:00.248731,14.098985087750565,13.113731517044487
2019-03-13 01:11:00.248876,14.08809472180542,13.125992193936371
2019-03-13 01:11:00.254781,14.11001969695326,13.115101827991227
2019-03-13 01:11:00.255071,14.085137735025613,13.138373073542882
2019-03-13 01:11:00.255178,14.07160290935869,13.13224273509694
2019-03-13 01:11:00.255269,14.096989722687768,13.13188212695306
2019-03-13 01:11:00.255356,14.07210776076012,13.155273575219342
2019-03-13 01:11:00.255442,14.102999858419084,13.139334695259892
2019-03-13 01:11:00.255528,14.09860043906376,13.144767857961002
2019-03-13 01:11:00.270384,14.101557425843568,13.155249534676416
2019-03-13 01:11:00.270632,14.092518181703669,13.149720209803606
2019-03-13 01:11:00.270744,14.115741346169473,13.164817670760671
2019-03-13 01:11:00.277346,14.09352788450653,13.150826074778168
2019-03-13 01:11:00.277602,14.112423751245787,13.159985521632693
2019-03-13 01:11:00.277755,14.153220552589959,13.146426655422845
2019-03-13 01:11:00.294708,14.114827805538313,13.163711805786109
2019-03-13 01:11:00.294879,14.114635481194911,13.167053441252722
2019-03-13 01:11:00.295023,14.146248795141632,13.15746126462554
2019-03-13 01:11:00.295165,14.133122658704439,13.170948009206615
2019-03-13 01:11:00.295261,14.14331584890475,13.180708469634272
2019-03-13 01:11:00.295348,14.15834118823304,13.167173643967349
2019-03-13 01:11:00.295433,14.12545372551128,13.196983917194675
2019-03-13 01:11:00.295517,14.155408241996158,13.182727875239994
2019-03-13 01:11:00.296812,14.150936701012059,13.183088483383873
2019-03-13 01:11:00.296998,14.13088688821239,13.187175375681168
2019-03-13 01:11:00.297097,14.137594199688538,13.19782533619706
2019-03-13 01:11:00.299865,14.174881081765623,13.170202752375932
2019-03-13 01:11:00.300065,14.148556687262458,13.186165672878307
2019-03-13 01:11:00.300164,14.136344091456424,13.206792458708183
2019-03-13 01:11:00.300253,14.146393038399184,13.204244161158105
2019-03-13 01:11:00.303605,14.143892821934957,13.201888187951429
2019-03-13 01:11:00.303806,14.145118889624145,13.205614472104845
2019-03-13 01:11:00.303904,14.191180569868951,13.209268634629485
2019-03-13 01:11:00.303994,14.172068338243367,13.212754513353648
2019-03-13 01:11:00.304079,14.138507740319698,13.235232420988769
2019-03-13 01:11:00.304164,14.172116419329218,13.21842808148401
2019-03-13 01:11:00.304249,14.169856608294243,13.206335688392603
2019-03-13 01:11:00.319786,14.165120621337966,13.204051836814703
2019-03-13 01:11:00.319953,14.16550527002477,13.22532771730356
2019-03-13 01:11:00.320033,14.177862109088355,13.206984783051585
2019-03-13 01:11:00.322352,14.17920837949217,13.205085580160489
2019-03-13 01:11:00.322519,14.204595192821248,13.21249006738147
2019-03-13 01:11:00.322642,14.199883246407897,13.220567689804358
2019-03-13 01:11:00.322718,14.193704826876104,13.239776083601644
2019-03-13 01:11:00.324678,14.155696728511261,13.254248490442652
2019-03-13 01:11:00.324835,14.1659139592545,13.25547455813184
2019-03-13 01:11:00.324935,14.168967108206008,13.255210112159663
2019-03-13 01:11:00.343527,14.163341621161495,13.25898447739893
2019-03-13 01:11:00.343682,14.17875160917659,13.24948846294345
2019-03-13 01:11:00.343755,14.178415041575636,13.240665583689879
2019-03-13 01:11:00.343820,14.192190272671812,13.228621271684322
2019-03-13 01:11:00.345878,14.160384634381687,13.243069637982405
2019-03-13 01:11:00.345990,14.192598961901542,13.236145961619929
2019-03-13 01:11:00.346061,14.17916029840632,13.234342920900534
2019-03-13 01:11:00.348338,14.168125689203624,13.241002151290832
2019-03-13 01:11:00.348451,14.192550880815691,13.251796355064275
2019-03-13 01:11:00.348632,14.19524342162332,13.260114382916417
2019-03-13 01:11:00.348708,14.165216783509667,13.279611263228805
2019-03-13 01:11:00.368350,14.211855436784678,13.262302072322615
2019-03-13 01:11:00.368551,14.194762610764815,13.2677111944808
2019-03-13 01:11:00.368651,14.17596290619726,13.280669047117517
2019-03-13 01:11:00.368742,14.210941896153518,13.244776516530099
2019-03-13 01:11:00.371123,14.176804325199644,13.270019086601625
2019-03-13 01:11:00.371324,14.192382597015214,13.270259492030878
2019-03-13 01:11:00.371423,14.187189839743358,13.272158694921973
2019-03-13 01:11:00.371721,14.22168801884111,13.243622570469686
2019-03-13 01:11:00.372727,14.20341720621791,13.265186937473647
2019-03-13 01:11:00.372880,14.21346615316067,13.27410597889892
2019-03-13 01:11:00.372978,14.205532773995333,13.287159993707338
2019-03-13 01:11:00.376008,14.240896412638396,13.28324138521052
2019-03-13 01:11:00.376175,14.215870207453197,13.288434142482377
2019-03-13 01:11:00.376255,14.214812423564485,13.299757238200177
2019-03-13 01:11:00.379657,14.205773179424586,13.301055427518142
2019-03-13 01:11:00.379824,14.237025885227428,13.286607061220057
2019-03-13 01:11:00.379904,14.21296130175924,13.289347683113537
2019-03-13 01:11:00.379977,14.228707857375287,13.275308006045183
2019-03-13 01:11:00.396014,14.20707136874255,13.306031819903671
2019-03-13 01:11:00.396417,14.224957532678946,13.300165927429907
2019-03-13 01:11:00.396526,14.223803586618534,13.291871940120691
2019-03-13 01:11:00.398605,14.252628197585924,13.279899749743908
2019-03-13 01:11:00.398811,14.24625745371073,13.302377657379031
2019-03-13 01:11:00.398912,14.241425304582751,13.294444278213694
2019-03-13 01:11:00.399002,14.221615897212335,13.325408497501433
2019-03-13 01:11:00.401040,14.233227479445237,13.311272658261379
2019-03-13 01:11:00.401242,14.232362019899927,13.328918416768522
2019-03-13 01:11:00.401342,14.237290331199606,13.33425541729793
2019-03-13 01:11:00.418102,14.227770276201202,13.32415838926932
2019-03-13 01:11:00.418273,14.25544094110818,13.315648037073776
2019-03-13 01:11:00.418375,14.240559845037442,13.319085834712089
2019-03-13 01:11:00.418465,14.271139415638377,13.289756372343266
2019-03-13 01:11:00.421056,14.27736591625602,13.285356952987943
2019-03-13 01:11:00.421467,14.242915818244118,13.327211538220828
2019-03-13 01:11:00.421583,14.289314066089878,13.291703656320214
2019-03-13 01:11:00.423154,14.26645150976795,13.340409796286798
2019-03-13 01:11:00.423355,14.264384023076378,13.334423701098407
2019-03-13 01:11:00.423454,14.29777633719957,13.319879172628623
2019-03-13 01:11:00.423543,14.260345211864934,13.350098135085679
2019-03-13 01:11:00.427246,14.284746362934076,13.331202268346422
2019-03-13 01:11:00.427448,14.287895674057285,13.34156374234721
2019-03-13 01:11:00.427548,14.2709711318379,13.338005741994271
2019-03-13 01:11:00.445865,14.284554038590674,13.332861065808265
2019-03-13 01:11:00.446036,14.291020944637571,13.336274822903652
2019-03-13 01:11:00.446135,14.280899876066034,13.33014448445771
2019-03-13 01:11:00.446216,14.290708417579543,13.326971132791575
2019-03-13 01:11:00.446294,14.308883068031042,13.323581416239113
2019-03-13 01:11:00.447789,14.29686279656841,13.338750998824954
2019-03-13 01:11:00.447926,14.313883500959497,13.347117107762946
2019-03-13 01:11:00.448013,14.322610218041367,13.361757798404431
2019-03-13 01:11:00.451048,14.305276986592252,13.36202224437661
2019-03-13 01:11:00.451250,14.336529692395095,13.348703783596013
2019-03-13 01:11:00.451350,14.306190527223412,13.36841702879473
2019-03-13 01:11:00.468474,14.316720285024678,13.363801244553079
2019-03-13 01:11:00.468676,14.33193794869637,13.362190528177086
2019-03-13 01:11:00.468774,14.317032812082706,13.374763732126999
2019-03-13 01:11:00.468864,14.336986462710675,13.348559540338462
2019-03-13 01:11:00.471086,14.33888566560177,13.35105975680269
2019-03-13 01:11:00.471290,14.33696242216775,13.368152582822551
2019-03-13 01:11:00.471390,14.307512757084302,13.375004137556251
2019-03-13 01:11:00.473767,14.360642356949134,13.34877590522479
2019-03-13 01:11:00.473955,14.321720717953133,13.387745625306641
2019-03-13 01:11:00.474046,14.338597179086667,13.388899571367054
2019-03-13 01:11:00.474125,14.358094059399056,13.372816448150052
2019-03-13 01:11:00.477305,14.324533461475388,13.39216908520489
2019-03-13 01:11:00.477460,14.350857855978552,13.38404338169615
2019-03-13 01:11:00.477557,14.346963288024659,13.386447435988677
2019-03-13 01:11:00.477646,14.340400219806062,13.375148380813803
2019-03-13 01:11:00.495500,14.376148507135929,13.357839189907613
2019-03-13 01:11:00.495706,14.347540261054865,13.3862791521882
2019-03-13 01:11:00.495899,14.334125638102568,13.395606882843202
2019-03-13 01:11:00.498357,14.356916072795718,13.3657244879871
2019-03-13 01:11:00.498510,14.371869290495232,13.387409057705687
2019-03-13 01:11:00.498642,14.344198625588254,13.399309126453693
2019-03-13 01:11:00.498777,14.333957354302092,13.407266546161955
2019-03-13 01:11:00.500556,14.339318395374425,13.404261478296297
2019-03-13 01:11:00.500758,14.343501449843421,13.424527655982295
2019-03-13 01:11:00.500856,14.378913169572334,13.397169518133344
2019-03-13 01:11:00.504854,14.370162411947538,13.418229033735876
2019-03-13 01:11:00.505058,14.373984858272655,13.415464371299471
2019-03-13 01:11:00.505157,14.361796303009546,13.393058585293124
2019-03-13 01:11:00.505247,14.346867125852958,13.40140065368819
2019-03-13 01:11:00.519808,14.389755454431628,13.406809775846375
2019-03-13 01:11:00.520010,14.366772695395076,13.424383412724744
2019-03-13 01:11:00.520110,14.384755021503173,13.41947914196799
2019-03-13 01:11:00.522284,14.386822508194745,13.389572706568961
2019-03-13 01:11:00.522487,14.385211791818753,13.424239169467192
2019-03-13 01:11:00.522624,14.413555591927638,13.401256410430639
2019-03-13 01:11:00.522718,14.403506644984878,13.426018169643662
2019-03-13 01:11:00.526038,14.408699402256735,13.430826278228714
2019-03-13 01:11:00.526239,14.400333293318743,13.445370806698499
2019-03-13 01:11:00.526337,14.392303751981705,13.442966752405972
2019-03-13 01:11:00.526426,14.388889994886318,13.443086955120599
2019-03-13 01:11:00.542799,14.41812329508344,13.403203694407585
2019-03-13 01:11:00.542936,14.403386442270252,13.42866262936544
2019-03-13 01:11:00.543017,14.436321986077864,13.417387614733492
2019-03-13 01:11:00.546101,14.399059144543704,13.430754156599939
2019-03-13 01:11:00.546268,14.397424387624786,13.452030037088797
2019-03-13 01:11:00.546347,14.402496942182017,13.433062048720764
2019-03-13 01:11:00.546418,14.413483470298862,13.447991225877352
2019-03-13 01:11:00.547929,14.426922133794086,13.44145219820168
2019-03-13 01:11:00.548114,14.42680193107946,13.444938076925844
2019-03-13 01:11:00.548218,14.417498240967383,13.452294483060975
2019-03-13 01:11:00.552311,14.383793399786162,13.466598606101506
2019-03-13 01:11:00.552512,14.415815402962615,13.465733146556197
2019-03-13 01:11:00.552611,14.41492590287438,13.44952982062457
2019-03-13 01:11:00.571117,14.437139364537323,13.455876523956839
2019-03-13 01:11:00.571285,14.40319411792685,13.464218592351905
2019-03-13 01:11:00.571365,14.411127497092187,13.444288982266862
2019-03-13 01:11:00.571436,14.418315619426842,13.45186175328832
2019-03-13 01:11:00.571506,14.41817137616929,13.451693469487843
2019-03-13 01:11:00.572764,14.440264635117607,13.459843213539507
2019-03-13 01:11:00.572905,14.417690565310785,13.467584268361442
2019-03-13 01:11:00.572984,14.418964714085824,13.489653486766834
2019-03-13 01:11:00.576032,14.430720539576278,13.481672026515646
2019-03-13 01:11:00.576204,14.421344727835425,13.483739513207219
2019-03-13 01:11:00.576285,14.432211053237644,13.485326189040286
2019-03-13 01:11:00.594927,14.435192080560377,13.485975283699268
2019-03-13 01:11:00.595128,14.468151664910913,13.47241641748942
2019-03-13 01:11:00.595227,14.446010324876745,13.490518946312143
2019-03-13 01:11:00.595316,14.450121257716965,13.479364134394821
2019-03-13 01:11:00.597219,14.431513877492812,13.488379337991795
2019-03-13 01:11:00.597419,14.473993516841752,13.457270875446504
2019-03-13 01:11:00.597519,14.456275636705833,13.482729810404358
2019-03-13 01:11:00.599698,14.45964131271537,13.476863917930594
2019-03-13 01:11:00.599851,14.458054636882302,13.48703306758798
2019-03-13 01:11:00.599949,14.475844638646997,13.493115324948072
2019-03-13 01:11:00.600037,14.431634080207438,13.513862313492574
2019-03-13 01:11:00.602150,14.480676787774975,13.48977368948146
2019-03-13 01:11:00.602304,14.467742975681183,13.512516043088759
2019-03-13 01:11:00.602403,14.483201044782128,13.49205754105936
2019-03-13 01:11:00.618613,14.45141944703493,13.500760217598305
2019-03-13 01:11:00.618798,14.449568325229684,13.509631177937727
2019-03-13 01:11:00.618969,14.47247896263746,13.49749070376047
2019-03-13 01:11:00.619054,14.455001487930794,13.507876218304183
2019-03-13 01:11:00.620944,14.489018856170041,13.504462461208796
2019-03-13 01:11:00.621100,14.487336018165273,13.501745879858241
2019-03-13 01:11:00.621199,14.51678568324872,13.486960945959204
2019-03-13 01:11:00.621288,14.478080409139046,13.51393443512135
2019-03-13 01:11:00.624789,14.488345720968134,13.512059272773179
2019-03-13 01:11:00.624989,14.478729503798029,13.523430449576828
2019-03-13 01:11:00.625089,14.506376128162081,13.514799894666659
2019-03-13 01:11:00.625178,14.478897787598505,13.532277369373325
2019-03-13 01:11:00.628054,14.511448682719312,13.504871150438525
2019-03-13 01:11:00.628254,14.511737169234415,13.49936586610864
2019-03-13 01:11:00.628353,14.49709647859293,13.502827704289878
2019-03-13 01:11:00.644818,14.50938119602774,13.513285340462367
2019-03-13 01:11:00.645008,14.550610727144567,13.493956743950456
2019-03-13 01:11:00.645108,14.537869239394176,13.504029731436141
2019-03-13 01:11:00.645199,14.509765844714543,13.518189611219121
2019-03-13 01:11:00.652204,14.550682848773343,13.498476366020405
2019-03-13 01:11:00.652402,14.543182199380661,13.51722798950211
2019-03-13 01:11:00.652501,14.550875173116745,13.522276503516416
2019-03-13 01:11:00.652591,14.550226078457763,13.53093109896951
2019-03-13 01:11:00.652678,14.532700522665245,13.533840004663467
2019-03-13 01:11:00.652763,14.554938024871115,13.535667085925787
2019-03-13 01:11:00.667885,14.538037523194653,13.544177438121332
2019-03-13 01:11:00.668088,14.551115578545998,13.510688961826439
2019-03-13 01:11:00.668188,14.571117310259817,13.536845072529125
2019-03-13 01:11:00.668279,14.584820419727217,13.51165058354345
2019-03-13 01:11:00.676173,14.575396526900514,13.513093016118965
2019-03-13 01:11:00.676375,14.59643200196012,13.495831906298626
2019-03-13 01:11:00.676474,14.595470380243109,13.52722885535902
2019-03-13 01:11:00.676564,14.583546270952178,13.531435950370941
2019-03-13 01:11:00.676651,14.565539904301156,13.541893586543432
2019-03-13 01:11:00.676737,14.598836056252646,13.534801626380478
2019-03-13 01:11:00.676822,14.57409833758255,13.546557451870934
2019-03-13 01:11:00.676909,14.59789847507856,13.536941234700826
2019-03-13 01:11:00.704059,14.598018677793187,13.546821897843111
2019-03-13 01:11:00.704259,14.567992039679533,13.536171937327218
2019-03-13 01:11:00.719758,14.609654300569014,13.534657383122926
2019-03-13 01:11:00.719925,14.588594784966483,13.544994816580791
2019-03-13 01:11:00.720004,14.578040986622293,13.553384966061708
2019-03-13 01:11:00.720076,14.613356544179505,13.518742543706402
2019-03-13 01:11:00.720145,14.58044504091482,13.561919358800177
2019-03-13 01:11:00.721661,14.593883704410041,13.546389168070457
2019-03-13 01:11:00.721828,14.60753873279159,13.546845938386037
2019-03-13 01:11:00.721908,14.637829816877423,13.550067371138022
2019-03-13 01:11:00.724403,14.623117004607161,13.563866642777123
2019-03-13 01:11:00.724590,14.64119549288696,13.548697060191282
2019-03-13 01:11:00.724717,14.608139746364722,13.576271562926559
2019-03-13 01:11:00.727270,14.637781735791572,13.564131088749301
2019-03-13 01:11:00.727437,14.615351909242301,13.578218846903505
2019-03-13 01:11:00.727516,14.622900639720834,13.597499362329566
2019-03-13 01:11:00.727587,14.632180289289986,13.583075036574408
2019-03-13 01:11:00.729701,14.618212733850408,13.594277929577581
2019-03-13 01:11:00.729855,14.617804044620678,13.601850700599039
2019-03-13 01:11:00.729953,14.651364642544346,13.575237819580773
2019-03-13 01:11:00.730041,14.618140612221632,13.589806388593482
2019-03-13 01:11:00.744504,14.635570005842448,13.568386264847073
2019-03-13 01:11:00.744706,14.668818076708089,13.575382062838324
2019-03-13 01:11:00.744807,14.63804618176375,13.606947295699195
2019-03-13 01:11:00.747215,14.656581440359128,13.590166996737361
2019-03-13 01:11:00.747369,14.639103965652462,13.610553377137984
2019-03-13 01:11:00.747468,14.66804877933448,13.596946429842285
2019-03-13 01:11:00.749581,14.648768263908417,13.605913552353408
2019-03-13 01:11:00.749804,14.648479777393314,13.580911387711135
2019-03-13 01:11:00.749933,14.641147411801109,13.585983942268365
2019-03-13 01:11:00.750026,14.667808373905228,13.59322014568887
2019-03-13 01:11:00.752432,14.662158846317789,13.59560015943847
2019-03-13 01:11:00.752634,14.680261375140514,13.600672713995701
2019-03-13 01:11:00.752734,14.653672534665171,13.593556713289823
2019-03-13 01:11:00.752823,14.661870359802686,13.588315874932116
2019-03-13 01:11:00.754916,14.664130170837662,13.609735998678525
2019-03-13 01:11:00.755119,14.693796200807437,13.599110078705559
2019-03-13 01:11:00.755218,14.681775929344806,13.613053593602212
2019-03-13 01:11:00.769817,14.683554929521275,13.618414634674545
2019-03-13 01:11:00.769971,14.65357637249347,13.633656338889162
2019-03-13 01:11:00.770050,14.65448991312463,13.616419269611749
2019-03-13 01:11:00.770121,14.693940444064989,13.625530635380423
2019-03-13 01:11:00.772357,14.664610981696168,13.623054459459121
2019-03-13 01:11:00.772562,14.687401416389317,13.622116878285036
2019-03-13 01:11:00.772659,14.671775063487896,13.612428539486155
2019-03-13 01:11:00.774660,14.681511483372628,13.625771040809676
2019-03-13 01:11:00.774867,14.68028541568344,13.630170460165
2019-03-13 01:11:00.774968,14.699589971652426,13.616996242641955
2019-03-13 01:11:00.775059,14.707018499416332,13.629449243877241
2019-03-13 01:11:00.777463,14.69627237672874,13.629016514104586
2019-03-13 01:11:00.777666,14.694277011665942,13.654451408519515
2019-03-13 01:11:00.777767,14.707475269731912,13.633608257803312
2019-03-13 01:11:00.794203,14.677015901845603,13.655605354579928
2019-03-13 01:11:00.794367,14.701056444770867,13.625362351579946
2019-03-13 01:11:00.794456,14.700647755541137,13.639137582676122
2019-03-13 01:11:00.794599,14.69093537619933,13.65178290825481
2019-03-13 01:11:00.797230,14.691776795201715,13.649931786449566
2019-03-13 01:11:00.797415,14.6995659311095,13.618919486075976
2019-03-13 01:11:00.797503,14.729544488137304,13.630050257450373
2019-03-13 01:11:00.797584,14.6971859173599,13.650677043280249
2019-03-13 01:11:00.799325,14.706994458873407,13.663755098631592
2019-03-13 01:11:00.799508,14.698748552650041,13.665005206863707
2019-03-13 01:11:00.799597,14.692498011489473,13.668418963959095
2019-03-13 01:11:00.803402,14.710143769996616,13.680415194878801
2019-03-13 01:11:00.803541,14.730193582796286,13.661639530854169
2019-03-13 01:11:00.803628,14.707956080590417,13.681136411166559
2019-03-13 01:11:00.803709,14.724447893037148,13.635675744494884
2019-03-13 01:11:00.818703,14.708533053620624,13.66570238260854
2019-03-13 01:11:00.818909,14.746853679043493,13.669524828933657
2019-03-13 01:11:00.819009,14.711009229541926,13.66178377411172
2019-03-13 01:11:00.820951,14.718557960020458,13.64524388057914
2019-03-13 01:11:00.821106,14.724736379552251,13.677914978414574
2019-03-13 01:11:00.821205,14.737694232188968,13.664211868947172
2019-03-13 01:11:00.821295,14.736804732100733,13.66940462621903
2019-03-13 01:11:00.824842,14.738319286305025,13.674116572632382
2019-03-13 01:11:00.825046,14.739809799966391,13.674861829463065
2019-03-13 01:11:00.825147,14.723125663176258,13.683828951974188
2019-03-13 01:11:00.843042,14.742574462402796,13.669548869476582
2019-03-13 01:11:00.843217,14.743584165205657,13.673178991458297
2019-03-13 01:11:00.843327,14.742598502945722,13.67123170748135
2019-03-13 01:11:00.843410,14.752383003916304,13.670991302052098
2019-03-13 01:11:00.845958,14.765172572752544,13.650556840565622
2019-03-13 01:11:00.846096,14.760172139824089,13.670943220966247
2019-03-13 01:11:00.846185,14.775221519695304,13.654643732862917
2019-03-13 01:11:00.848449,14.772697262688151,13.666639963782625
2019-03-13 01:11:00.848606,14.749329854964795,13.700200561706293
2019-03-13 01:11:00.848695,14.760652950682594,13.704648062147466
2019-03-13 01:11:00.848775,14.77438010069292,13.701522791567182
2019-03-13 01:11:00.852253,14.766446721527583,13.694791439548109
2019-03-13 01:11:00.852545,14.774908992637275,13.703325832286577
2019-03-13 01:11:00.852651,14.751806030886097,13.70265269708467
2019-03-13 01:11:00.852743,14.754258166264474,13.686184925180864
2019-03-13 01:11:00.867869,14.766374599898807,13.691017074308842
2019-03-13 01:11:00.868072,14.750099152338404,13.698109034471795
2019-03-13 01:11:00.868173,14.777938101045859,13.705657764950328
2019-03-13 01:11:00.870862,14.769788356994194,13.68214611396942
2019-03-13 01:11:00.871027,14.788011088531544,13.70407108911726
2019-03-13 01:11:00.871126,14.78356358809037,13.701426629395481
2019-03-13 01:11:00.871216,14.776856276614222,13.719793604190382
2019-03-13 01:11:00.873261,14.788131291246172,13.711018806022661
2019-03-13 01:11:00.873429,14.775461925124556,13.71599519840819
2019-03-13 01:11:00.873528,14.781664385199274,13.72234190174046
2019-03-13 01:11:00.893499,14.787193710072085,13.714384482032198
2019-03-13 01:11:00.893736,14.771879884228692,13.735468038177654
2019-03-13 01:11:00.893843,14.771375032827262,13.699767831933638
2019-03-13 01:11:00.893932,14.775870614354286,13.71051395462123
2019-03-13 01:11:00.895849,14.796906089413893,13.714144076602945
2019-03-13 01:11:00.895944,14.78543875043854,13.73924240341692
2019-03-13 01:11:00.895995,14.786472493784327,13.710586076250006
2019-03-13 01:11:00.897739,14.79570406226763,13.702580575455894
2019-03-13 01:11:00.897821,14.810128388022788,13.723447766715022
2019-03-13 01:11:00.897873,14.806281901154746,13.72681344272456
2019-03-13 01:11:00.897920,14.804238455006098,13.725226766891492
2019-03-13 01:11:00.900715,14.80798877970244,13.745420822948713
2019-03-13 01:11:00.900797,14.812820928830417,13.735684403063981
2019-03-13 01:11:00.900850,14.800488130309757,13.73746340324045
2019-03-13 01:11:00.918458,14.78885250753393,13.749026904387502
2019-03-13 01:11:00.918654,14.81666741569846,13.722438063912161
2019-03-13 01:11:00.918735,14.813758510004503,13.724769996575912
2019-03-13 01:11:00.918808,14.810200509651564,13.725298888520268
2019-03-13 01:11:00.920983,14.818326213160303,13.726164348065577
2019-03-13 01:11:00.921150,14.812869009916268,13.751767526280982
2019-03-13 01:11:00.921228,14.828904052047418,13.70904748150279
2019-03-13 01:11:00.921323,14.807051198528354,13.753185918313573
2019-03-13 01:11:00.922866,14.830803254938514,13.742824444312784
2019-03-13 01:11:00.923020,14.828062633045034,13.747127701496407
2019-03-13 01:11:00.923117,14.816907821127712,13.750373174791317
2019-03-13 01:11:00.927268,14.825995146353462,13.75284935071262
2019-03-13 01:11:00.927472,14.799574589678597,13.764989824889877
2019-03-13 01:11:00.927570,14.826403835583191,13.75385905351548
2019-03-13 01:11:00.945821,14.822220781114195,13.752104093881936
2019-03-13 01:11:00.945992,14.84457848603469,13.74111756576509
2019-03-13 01:11:00.946091,14.815705793981449,13.749050944930428
2019-03-13 01:11:00.946180,14.823470889346309,13.737078754553647
2019-03-13 01:11:00.946266,14.842895648029922,13.740997363050464
2019-03-13 01:11:00.947910,14.862873339200815,13.736333497722963
2019-03-13 01:11:00.948091,14.859074933418624,13.76294637874123
2019-03-13 01:11:00.948180,14.84001078287889,13.760398081191152
2019-03-13 01:11:00.951088,14.844025553547409,13.780952745392252
2019-03-13 01:11:00.951268,14.870181664250095,13.758090189070327
2019-03-13 01:11:00.951358,14.831476390140422,13.787371570353297
2019-03-13 01:11:00.968427,14.835683485152343,13.779149704672857
2019-03-13 01:11:00.968611,14.842222512828014,13.769918136189556
2019-03-13 01:11:00.968710,14.823783416404337,13.768355500899414
2019-03-13 01:11:00.968799,14.836741269041054,13.759268175673665
2019-03-13 01:11:00.971117,14.86097413630972,13.750132769362065
2019-03-13 01:11:00.971315,14.87097500216663,13.757585337668896
2019-03-13 01:11:00.971415,14.864844663720687,13.778260204584623
2019-03-13 01:11:00.973624,14.865734163808922,13.74919518818798
2019-03-13 01:11:00.973791,14.838928958447253,13.793886557486045
2019-03-13 01:11:00.973871,14.881336476167418,13.770807636277791
2019-03-13 01:11:00.973943,14.86929216416186,13.785953178320707
2019-03-13 01:11:00.977323,14.87660048921114,13.80020922027539
2019-03-13 01:11:00.977490,14.85960382536298,13.799656287788109
2019-03-13 01:11:00.977570,14.878066962329582,13.792852814140259
2019-03-13 01:11:00.977641,14.860733730880467,13.79020835441848
2019-03-13 01:11:00.992966,14.870277826421797,13.76797085221261
2019-03-13 01:11:00.993117,14.898116775129251,13.787395610896223
2019-03-13 01:11:00.993206,14.8912171393097,13.781337394079056
2019-03-13 01:11:00.995937,14.889510260762007,13.7716730958231
2019-03-13 01:11:00.996132,14.8866494361539,13.800786193305596
2019-03-13 01:11:00.996233,14.871407731939284,13.810787059162505
2019-03-13 01:11:00.996324,14.879821921963126,13.79847830118477
2019-03-13 01:11:00.998119,14.897227275041017,13.795809800920066
2019-03-13 01:11:00.998323,14.897828288614148,13.799055274214977
2019-03-13 01:11:00.998422,14.873835826774735,13.809248464415289
2019-03-13 01:11:01.018611,14.870422069679348,13.81081109970543
2019-03-13 01:11:01.018810,14.894342409889985,13.801291044707027
2019-03-13 01:11:01.018912,14.910040884420182,13.775038771832637
2019-03-13 01:11:01.019004,14.913382519886795,13.790568962562359
2019-03-13 01:11:01.020898,14.917733858156268,13.791410381564743
2019-03-13 01:11:01.021052,14.899102437389187,13.801771855565532
2019-03-13 01:11:01.021151,14.930571508078359,13.787443691982073
2019-03-13 01:11:01.023632,14.907083897640375,13.791770989708622
2019-03-13 01:11:01.023835,14.909319668132424,13.813383437798434
2019-03-13 01:11:01.023934,14.900064059106198,13.820691762847714
2019-03-13 01:11:01.024024,14.902468113398724,13.817494370638654
2019-03-13 01:11:01.026099,14.921195696337506,13.834659318287292
2019-03-13 01:11:01.026305,14.933480413772315,13.81948973570145
2019-03-13 01:11:01.026404,14.897708085899522,13.844251494914472
2019-03-13 01:11:01.043395,14.91523364169204,13.813671924313537
2019-03-13 01:11:01.043589,14.920426398963897,13.839299143071868
2019-03-13 01:11:01.043691,14.92158034502431,13.81761457335328
2019-03-13 01:11:01.043780,14.94985202350442,13.80944078875869
2019-03-13 01:11:01.045805,14.932446670426529,13.819561857330227
2019-03-13 01:11:01.046009,14.95985288936133,13.82574027686202
2019-03-13 01:11:01.046110,14.929489683646722,13.816532748921643
2019-03-13 01:11:01.046201,14.953698510372462,13.818359830183963
2019-03-13 01:11:01.047858,14.955621753806483,13.828312614955022
2019-03-13 01:11:01.048051,14.96675252518088,13.825067141660112
2019-03-13 01:11:01.048150,14.929946453962302,13.855742874432748
2019-03-13 01:11:01.052219,14.939226103531453,13.83410638580001
2019-03-13 01:11:01.052422,14.939009738645126,13.856031360947851
2019-03-13 01:11:01.052524,14.958001767556084,13.82674997966488
2019-03-13 01:11:01.073537,14.959372078502824,13.852906090367567
2019-03-13 01:11:01.073710,14.961415524651471,13.83862600786996
2019-03-13 01:11:01.073791,14.966536160294552,13.81994650601703
2019-03-13 01:11:01.073862,14.99192297362363,13.827350993238012
2019-03-13 01:11:01.073932,14.977546728954323,13.833481331683954
2019-03-13 01:11:01.075638,14.950885766850206,13.851487698334976
2019-03-13 01:11:01.075809,14.975214796290572,13.848025860153738
2019-03-13 01:11:01.075890,14.97918148587324,13.84319371102576
2019-03-13 01:11:01.078445,14.966656363009179,13.86557545648918
2019-03-13 01:11:01.078672,14.98502333780408,13.848362427754692
2019-03-13 01:11:01.078775,14.989110230101375,13.859565320757865
2019-03-13 01:11:01.095518,14.992620149368463,13.871128821904916
2019-03-13 01:11:01.095712,14.977522688411398,13.855911158233225
2019-03-13 01:11:01.095812,14.986009000064016,13.85045395498919
2019-03-13 01:11:01.095902,14.980287350847803,13.854084076970905
2019-03-13 01:11:01.101127,15.002164244909793,13.846895954636251
2019-03-13 01:11:01.101322,14.951534861509188,13.866753443092518
2019-03-13 01:11:01.101422,14.97269053928342,13.851151130734022
2019-03-13 01:11:01.101512,15.013775827142695,13.869614267700625
2019-03-13 01:11:01.103600,15.004904866803273,13.850189509017012
2019-03-13 01:11:01.103893,15.016372205778623,13.863796456312711
2019-03-13 01:11:01.104029,15.016059678720595,13.870648011046411
2019-03-13 01:11:01.104135,15.003438393684831,13.870792254303963
2019-03-13 01:11:01.104224,15.013030570312011,13.871032659733215
2019-03-13 01:11:01.104311,15.002308488167344,13.865599497032106
2019-03-13 01:11:01.104422,15.012525718910581,13.881586458077406
2019-03-13 01:11:01.119730,15.015891394920118,13.865455253774554
2019-03-13 01:11:01.119897,15.014905732660182,13.874975308772958
2019-03-13 01:11:01.119977,15.017333827495634,13.870936497561514
2019-03-13 01:11:01.128157,15.01334309737004,13.858315212525751
2019-03-13 01:11:01.128400,15.018992624957477,13.871633673306347
2019-03-13 01:11:01.128507,15.021252435992452,13.868340118925586
2019-03-13 01:11:01.128590,15.02247850368164,13.875912889947044
2019-03-13 01:11:01.148395,15.021757287393882,13.878437146954196
2019-03-13 01:11:01.148597,15.022190017166537,13.893654810625888
2019-03-13 01:11:01.148697,15.023752652456679,13.883990512369932
2019-03-13 01:11:01.148785,15.02481043634539,13.889640039957369
2019-03-13 01:11:01.150245,15.028608842127582,13.905194271230014
2019-03-13 01:11:01.150399,15.02243042259579,13.872931862624311
2019-03-13 01:11:01.150499,15.02704620683744,13.900169797758634
2019-03-13 01:11:01.153645,15.02521912557512,13.890289134616351
2019-03-13 01:11:01.153846,15.030339761218201,13.901299703276122
2019-03-13 01:11:01.153946,15.03029168013235,13.896467554148144
2019-03-13 01:11:01.154035,15.031036936963034,13.892813391623504
2019-03-13 01:11:01.168428,15.026252868920906,13.893582688997112
2019-03-13 01:11:01.168610,15.029594504387518,13.908103176923971
2019-03-13 01:11:01.168700,15.029306017872415,13.909040758098056
2019-03-13 01:11:01.170651,15.031926437051268,13.908992677012206
2019-03-13 01:11:01.170854,15.031589869450315,13.911877542163237
2019-03-13 01:11:01.170953,15.031325423478137,13.909401366241935
2019-03-13 01:11:01.173509,15.030003193617247,13.912238150307116
2019-03-13 01:11:01.173663,15.033008261482905,13.898294635410464
2019-03-13 01:11:01.173762,15.031902396508343,13.900145757215709
2019-03-13 01:11:01.173851,15.031253301849361,13.903992244083751
2019-03-13 01:11:01.176069,15.032263004652222,13.909810055471665
2019-03-13 01:11:01.176271,15.034258369715019,13.908151258009822
2019-03-13 01:11:01.176369,15.036373937492442,13.922623664850832
2019-03-13 01:11:01.176458,15.033104423654606,13.898102311067062
2019-03-13 01:11:01.177865,15.034330491343795,13.92247942159328
2019-03-13 01:11:01.178020,15.035941207719787,13.923320840595665
2019-03-13 01:11:01.178118,15.038898194499597,13.92243134050743
2019-03-13 01:11:01.194921,15.038753951242045,13.929018449268952
2019-03-13 01:11:01.195101,15.038417383641091,13.949140383697397
2019-03-13 01:11:01.195189,15.032647653339026,13.911396731304732
2019-03-13 01:11:01.197320,15.036542221292919,13.92298427299471
2019-03-13 01:11:01.197520,15.03872991069912,13.918921421240341
2019-03-13 01:11:01.197620,15.042696600281788,13.936422936489933
2019-03-13 01:11:01.197709,15.036974951065574,13.911901582706163
2019-03-13 01:11:01.199793,15.039619410787354,13.931326341389777
2019-03-13 01:11:01.200028,15.041278208249198,13.929306935784055
2019-03-13 01:11:01.200136,15.039955978388308,13.936062328346054
2019-03-13 01:11:01.200228,15.040989721734094,13.93837022046688
2019-03-13 01:11:01.202423,15.041182046077497,13.94166377484764
2019-03-13 01:11:01.202665,15.041278208249198,13.952289694820607
2019-03-13 01:11:01.202767,15.042985086796891,13.946952694291198
2019-03-13 01:11:01.219239,15.045365100546492,13.959742263127438
2019-03-13 01:11:01.219440,15.044595803172884,13.96902191269659
2019-03-13 01:11:01.219539,15.044836208602137,13.951472316361148
2019-03-13 01:11:01.219628,15.041590735307226,13.925340246201387
2019-03-13 01:11:01.222260,15.043081248968592,13.934042922740332
2019-03-13 01:11:01.222469,15.046663289864457,13.954236978797553
2019-03-13 01:11:01.222653,15.047769154839019,13.945197734657654
2019-03-13 01:11:01.224896,15.046422884435204,13.940053058471648
2019-03-13 01:11:01.225179,15.046519046606905,13.948347045780864
2019-03-13 01:11:01.225284,15.048923100899431,13.975777305258589
2019-03-13 01:11:01.225393,15.047096019637111,13.949549072927127
2019-03-13 01:11:01.227315,15.050942506505153,13.982604819449364
2019-03-13 01:11:01.227469,15.049908763159367,13.97815731900819
2019-03-13 01:11:01.227548,15.052216655280192,13.98911980658211
2019-03-13 01:11:01.243634,15.049956844245218,13.970103737128227
2019-03-13 01:11:01.243838,15.05151947953536,13.957001641233958
2019-03-13 01:11:01.243926,15.051856047136313,13.960896209187851
2019-03-13 01:11:01.243999,15.05207241202264,13.971450007532042
2019-03-13 01:11:01.245932,15.05161564170706,13.952866667850813
2019-03-13 01:11:01.246088,15.05659203409259,13.978830454210097
2019-03-13 01:11:01.246187,15.05389949328496,13.976666805346824
2019-03-13 01:11:01.246277,15.052865749939174,13.972339507620276
2019-03-13 01:11:01.248431,15.056015061062384,13.992677806935049
2019-03-13 01:11:01.248586,15.055774655633131,13.976210035031244
2019-03-13 01:11:01.248685,15.055197682602925,13.982604819449364
2019-03-13 01:11:01.268474,15.055365966403402,13.971041318302312
2019-03-13 01:11:01.268680,15.056375669206263,13.992990333993077
2019-03-13 01:11:01.268781,15.058491236983686,13.980128643528062
2019-03-13 01:11:01.268871,15.05837103426906,13.962410763392143
2019-03-13 01:11:01.270942,15.053082114825502,13.96029519561472
2019-03-13 01:11:01.271026,15.056015061062384,13.981739359904054
2019-03-13 01:11:01.271076,15.054644750115644,13.953635965224422
2019-03-13 01:11:01.273256,15.057745980153003,13.969262318125843
2019-03-13 01:11:01.273446,15.060510642589408,13.966858263833316
2019-03-13 01:11:01.273507,15.063780156427244,14.001548767274471
2019-03-13 01:11:01.273554,15.059933669559202,13.985489684600395
2019-03-13 01:11:01.277033,15.060366399331857,13.990970928387355
2019-03-13 01:11:01.277260,15.06019811553138,13.99226911770532
2019-03-13 01:11:01.277313,15.06065488584696,13.995178023399276
2019-03-13 01:11:01.293163,15.061832872450298,13.997870564206906
2019-03-13 01:11:01.293238,15.066064008005144,13.995995401858735
2019-03-13 01:11:01.293265,15.062457926566355,13.98084985981582
2019-03-13 01:11:01.293289,15.05969326412995,13.981691278818204
2019-03-13 01:11:01.295625,15.062914696881935,13.99277396910675
2019-03-13 01:11:01.295695,15.06567935931834,13.976883170233151
2019-03-13 01:11:01.295722,15.061303980505942,13.980008440813435
2019-03-13 01:11:01.295746,15.064693697058404,13.989768901241092
2019-03-13 01:11:01.297688,15.067314116237258,14.014458538825338
2019-03-13 01:11:01.297749,15.06471773760133,14.006717484003403
2019-03-13 01:11:01.297776,15.065967845833443,14.017535728319771
2019-03-13 01:11:01.302070,15.068179575782567,14.024435364139322
2019-03-13 01:11:01.302143,15.065823602575891,14.020973525958084
2019-03-13 01:11:01.302170,15.06755452166651,14.019458971753792
2019-03-13 01:11:01.320609,15.07156929233503,14.019555133925493
2019-03-13 01:11:01.320687,15.067794927095763,13.992894171821376
2019-03-13 01:11:01.320725,15.064789859230105,13.978998738010574
2019-03-13 01:11:01.320760,15.06522258900276,13.993495185394508
2019-03-13 01:11:01.320794,15.068203616325492,13.985321400799918
2019-03-13 01:11:01.322502,15.06983837324441,14.01282378190642
2019-03-13 01:11:01.322592,15.071977981564759,14.015179755113095
2019-03-13 01:11:01.322628,15.07019898138829,14.011164984444576
2019-03-13 01:11:01.325723,15.071833738307207,14.021021607043934
2019-03-13 01:11:01.325795,15.070631711160944,14.010491849242669
2019-03-13 01:11:01.326037,15.073660819569527,14.02647881028797
2019-03-13 01:11:01.343096,15.07253091405204,14.021574539531215
2019-03-13 01:11:01.343184,15.073925265541705,14.039076054780807
2019-03-13 01:11:01.343220,15.072675157309591,14.026767296803072
2019-03-13 01:11:01.343254,15.073612738483677,14.021478377359514
2019-03-13 01:11:01.345751,15.07705053612199,14.026863458974773
2019-03-13 01:11:01.345822,15.073131927625171,14.009602349154434
2019-03-13 01:11:01.345902,15.072410711337414,14.01241509267669
2019-03-13 01:11:01.348223,15.074526279114837,14.007775267892114
2019-03-13 01:11:01.348301,15.075487900831847,14.03895585206618
2019-03-13 01:11:01.348334,15.07673800906396,14.024964256083678
2019-03-13 01:11:01.348366,15.074886887258716,14.027680837434232
2019-03-13 01:11:01.352043,15.078108320010701,14.04099929821483
2019-03-13 01:11:01.352140,15.077819833495598,14.03575845985712
2019-03-13 01:11:01.352183,15.079526712043291,14.05155309655902
2019-03-13 01:11:01.352221,15.074213752056808,14.008977295038378
2019-03-13 01:11:01.367935,15.07577638734695,14.025589310199734
2019-03-13 01:11:01.368050,15.078252563268252,14.023089093735507
2019-03-13 01:11:01.368104,15.077699630780971,14.023978593823742
2019-03-13 01:11:01.370910,15.076930333407363,14.013400754936626
2019-03-13 01:11:01.371028,15.081089347333434,14.038667365551078
2019-03-13 01:11:01.371081,15.078084279467776,14.0270798238611
2019-03-13 01:11:01.371129,15.079190144442338,14.038931811523256
2019-03-13 01:11:01.373478,15.080824901361256,14.060736583956471
2019-03-13 01:11:01.373631,15.078565090326281,14.041191622558232
2019-03-13 01:11:01.373703,15.080440252674451,14.054221596823725
2019-03-13 01:11:01.393645,15.081185509505135,14.04871631249384
2019-03-13 01:11:01.393828,15.080199847245199,14.04414860933804
2019-03-13 01:11:01.393915,15.079743076929619,14.027296188747428
2019-03-13 01:11:01.393996,15.081017225704658,14.044917906711648
2019-03-13 01:11:01.395962,15.080848941904181,14.041167582015307
2019-03-13 01:11:01.396115,15.08623402351944,14.054077353566173
2019-03-13 01:11:01.396214,15.084022293570316,14.038691406094003
2019-03-13 01:11:01.398519,15.083781888141063,14.038643325008152
2019-03-13 01:11:01.398793,15.085296442345355,14.044797703997022
2019-03-13 01:11:01.398910,15.085512807231682,14.076362936857892
2019-03-13 01:11:01.399001,15.083709766512287,14.051577137101946
2019-03-13 01:11:01.401157,15.086859077635497,14.075497477312583
2019-03-13 01:11:01.401380,15.083613604340586,14.073069382477131
2019-03-13 01:11:01.401477,15.086955239807198,14.081988423902404
2019-03-13 01:11:01.418434,15.085897455918486,14.070617247098754
2019-03-13 01:11:01.418755,15.08984010495823,14.072540490532775
2019-03-13 01:11:01.418890,15.089263131928023,14.05789979989129
2019-03-13 01:11:01.419010,15.085753212660935,14.031575405388125
2019-03-13 01:11:01.421005,15.08527240180243,14.064775395167915
2019-03-13 01:11:01.421160,15.087219685779376,14.054582204967604
2019-03-13 01:11:01.421259,15.087580293923255,14.057346867404009
2019-03-13 01:11:01.421347,15.091042132104493,14.076266774686191
2019-03-13 01:11:01.422733,15.090200713102108,14.071458666101138
2019-03-13 01:11:01.422851,15.09217203762198,14.084873289053435
2019-03-13 01:11:01.422939,15.090080510387482,14.07064128764168
2019-03-13 01:11:01.427200,15.08947949681435,14.07936800472355
2019-03-13 01:11:01.427400,15.093566389111645,14.098432155263284
2019-03-13 01:11:01.427501,15.08902272649877,14.06698712511704
2019-03-13 01:11:01.445939,15.092965375538514,14.073069382477131
2019-03-13 01:11:01.446141,15.094888618972535,14.073045341934206
2019-03-13 01:11:01.446240,15.092099915993204,14.051072285700515
2019-03-13 01:11:01.446329,15.088854442698294,14.061986692188585
2019-03-13 01:11:01.446415,15.09354234856872,14.057130502517682
2019-03-13 01:11:01.447713,15.090681523960614,14.06754005760432
2019-03-13 01:11:01.447866,15.094359727028179,14.086339762171876
2019-03-13 01:11:01.447964,15.09491265951546,14.097759020061376
2019-03-13 01:11:01.450682,15.09440780811403,14.091821005958836
2019-03-13 01:11:01.450837,15.097941767924043,14.105596237055012
2019-03-13 01:11:01.450936,15.09633105154805,14.099634182409547
2019-03-13 01:11:01.468425,15.097172470550435,14.096124263142459
2019-03-13 01:11:01.468635,15.09765328140894,14.103240263848337
2019-03-13 01:11:01.468738,15.092436483594158,14.073598274421487
2019-03-13 01:11:01.468829,15.098086011181595,14.09393657373626
2019-03-13 01:11:01.471834,15.097557119237239,14.081844180644852
2019-03-13 01:11:01.472125,15.093758713455047,14.069607544295893
2019-03-13 01:11:01.472232,15.09765328140894,14.11170253495803
2019-03-13 01:11:01.479828,15.097749443580641,14.071482706644064
2019-03-13 01:11:01.480030,15.101595930448683,14.113000724275993
2019-03-13 01:11:01.480128,15.099215916699082,14.104802899138479
2019-03-13 01:11:01.480216,15.100514106017046,14.118073278833224
2019-03-13 01:11:01.494302,15.100970876332626,14.101893993444522
2019-03-13 01:11:01.494503,15.097581159780164,14.092854749304623
2019-03-13 01:11:01.494640,15.101042997961402,14.094249100794288
2019-03-13 01:11:01.498614,15.10171613316331,14.082853883447713
2019-03-13 01:11:01.498817,15.099961173529765,14.093239397991427
2019-03-13 01:11:01.498916,15.10217290347889,14.090667059898424
2019-03-13 01:11:01.499006,15.101980579135487,14.094321222423064
2019-03-13 01:11:01.499093,15.103975944198284,14.101629547472344
2019-03-13 01:11:01.501704,15.105129890258697,14.100956412270437
2019-03-13 01:11:01.501858,15.107606066179999,14.115669224540698
2019-03-13 01:11:01.501955,15.103398971168078,14.112015062016058
2019-03-13 01:11:01.519700,15.102605633251544,14.108697467092371
2019-03-13 01:11:01.519892,15.102821998137872,14.113481535134499
2019-03-13 01:11:01.519990,15.102653714337395,14.11398638653593
2019-03-13 01:11:01.520079,15.10546645785965,14.130742644954838
2019-03-13 01:11:01.520164,15.104168268541686,14.110668791612243
2019-03-13 01:11:01.520248,15.105538579488426,14.114058508164705
2019-03-13 01:11:01.520333,15.107461822922447,14.129492536722724
2019-03-13 01:11:01.522339,15.105610701117202,14.098119628205255
2019-03-13 01:11:01.522532,15.11003416101545,14.133579429020019
2019-03-13 01:11:01.522674,15.10496160645822,14.10352875036344
2019-03-13 01:11:01.522764,15.10729353912197,14.132593766760083
2019-03-13 01:11:01.529784,15.108231120296056,14.11819348154785
2019-03-13 01:11:01.529977,15.107822431066326,14.132665888388859
2019-03-13 01:11:01.530076,15.108351323010682,14.123001590132903
2019-03-13 01:11:01.530165,15.105105849715772,14.117303981459616
2019-03-13 01:11:01.530251,15.11089962056076,14.138964510635278
2019-03-13 01:11:01.530337,15.109216782555992,14.135815199512068
2019-03-13 01:11:01.530423,15.110250525901778,14.137954807832417
2019-03-13 01:11:01.544930,15.107389701293672,14.099562060780771
2019-03-13 01:11:01.545133,15.110250525901778,14.13646429417105
2019-03-13 01:11:01.545233,15.11277478290893,14.123458360448483
2019-03-13 01:11:01.545321,15.11089962056076,14.133819834449271
2019-03-13 01:11:01.550460,15.10993799884375,14.125646049854682
2019-03-13 01:11:01.550718,15.109096579841365,14.117424184174242
2019-03-13 01:11:01.550828,15.111260228704639,14.126247063427813
2019-03-13 01:11:01.553811,15.111380431419265,14.127569293288703
2019-03-13 01:11:01.554014,15.112438215307977,14.14230614610189
2019-03-13 01:11:01.554113,15.111332350333415,14.140094416152765
2019-03-13 01:11:01.554211,15.114241256027372,14.157571890859431
2019-03-13 01:11:01.569308,15.113111350509884,14.130814766583613
2019-03-13 01:11:01.569503,15.116068337289692,14.158581593662293
2019-03-13 01:11:01.572008,15.112438215307977,14.138099051089968
2019-03-13 01:11:01.572165,15.111957404449472,14.141056037869776
2019-03-13 01:11:01.572264,15.116308742718944,14.143604335419854
2019-03-13 01:11:01.572353,15.114481661456624,14.13819521326167
2019-03-13 01:11:01.574636,15.111476593590966,14.132882253275186
2019-03-13 01:11:01.574844,15.119602297099705,14.163461823876121
2019-03-13 01:11:01.574946,15.120203310672837,14.164303242878507
2019-03-13 01:11:01.575035,15.116741472491599,14.16331758061857
2019-03-13 01:11:01.577115,15.119698459271406,14.183030825817287
2019-03-13 01:11:01.577272,15.119914824157734,14.174857041222698
2019-03-13 01:11:01.577372,15.119866743071883,14.174448351992968
2019-03-13 01:11:01.593482,15.117847337466161,14.161250093926997
2019-03-13 01:11:01.593686,15.119842702528958,14.182333650072454
2019-03-13 01:11:01.593786,15.117630972579834,14.151249228070087
2019-03-13 01:11:01.593970,15.118231986152965,14.172140459872143
2019-03-13 01:11:01.596102,15.117198242807179,14.15509571493813
2019-03-13 01:11:01.596294,15.122198675735634,14.181107582383266
2019-03-13 01:11:01.596393,15.121309175647399,14.170577824582
2019-03-13 01:11:01.598015,15.120251391758687,14.166995783686136
2019-03-13 01:11:01.598217,15.120251391758687,14.17327036538963
2019-03-13 01:11:01.598314,15.123568986682374,14.18793509657404
2019-03-13 01:11:01.598403,15.123520905596523,14.193440380903926
2019-03-13 01:11:01.602228,15.120203310672837,14.169688324493766
2019-03-13 01:11:01.602394,15.120804324245968,14.198200408403128
2019-03-13 01:11:01.602474,15.121116851303997,14.175337852081203
2019-03-13 01:11:01.602577,15.124674851656936,14.186949434314105
2019-03-13 01:11:01.617942,15.121477459447876,14.1524031741305
2019-03-13 01:11:01.618109,15.120515837730865,14.164471526678984
2019-03-13 01:11:01.618207,15.126141324775377,14.18281446093096
2019-03-13 01:11:01.621207,15.121429378362025,14.149878917123347
2019-03-13 01:11:01.621408,15.129098311555184,14.18413669079185
2019-03-13 01:11:01.621507,15.123617067768224,14.181299906726668
2019-03-13 01:11:01.621596,15.125780716631498,14.18880055611935
2019-03-13 01:11:01.624684,15.126141324775377,14.208177233717112
2019-03-13 01:11:01.624858,15.127247189749939,14.192190272671812
2019-03-13 01:11:01.624957,15.124121919169655,14.198825462519185
2019-03-13 01:11:01.643077,15.125732635545647,14.18870439394765
2019-03-13 01:11:01.643278,15.128280933095725,14.205532773995333
2019-03-13 01:11:01.643377,15.130420541416074,14.186300339655123
2019-03-13 01:11:01.643467,15.126405770747555,14.176660081942092
2019-03-13 01:11:01.646073,15.123256459624345,14.174712797965146
2019-03-13 01:11:01.646275,15.127487595179192,14.170241256981047
2019-03-13 01:11:01.646373,15.126501932919256,14.187646610058938
2019-03-13 01:11:01.648084,15.127607797893818,14.18550700173859
2019-03-13 01:11:01.648262,15.130396500873148,14.20118143572586
2019-03-13 01:11:01.648361,15.130228217072672,14.19930627337769
2019-03-13 01:11:01.648450,15.128377095267426,14.191925826699634
2019-03-13 01:11:01.650733,15.132656311908123,14.214043126190877
2019-03-13 01:11:01.650889,15.129651244042465,14.201301638440487
2019-03-13 01:11:01.650990,15.132944798423226,14.207383895800579
2019-03-13 01:11:01.669646,15.131310041504308,14.211494828640799
2019-03-13 01:11:01.669789,15.13287267679445,14.192671083530318
2019-03-13 01:11:01.669855,15.130372460330223,14.18870439394765
2019-03-13 01:11:01.669915,15.128377095267426,14.187598528973087
2019-03-13 01:11:01.672184,15.133185203852479,14.220534072780698
2019-03-13 01:11:01.672392,15.134387230998742,14.210581288009639
2019-03-13 01:11:01.672492,15.134170866112415,14.206494395712344
2019-03-13 01:11:01.672582,15.135300771629902,14.20240750341505
2019-03-13 01:11:01.674157,15.135829663574258,14.223611262275131
2019-03-13 01:11:01.674310,15.135589258145005,14.211927558413453
2019-03-13 01:11:01.674409,15.135925825745959,14.22853957357481
2019-03-13 01:11:01.678620,15.135300771629902,14.222841964901523
2019-03-13 01:11:01.679032,15.13647875823324,14.240079034178937
2019-03-13 01:11:01.679139,15.134868041857247,14.207552179601056
2019-03-13 01:11:01.679231,15.136310474432763,14.21026876095161
2019-03-13 01:11:01.696033,15.132199541592543,14.204066300876892
2019-03-13 01:11:01.696236,15.134074703940714,14.199065867948438
2019-03-13 01:11:01.696563,15.138137555695083,14.226087438196434
2019-03-13 01:11:01.698496,15.136574920404941,14.218009815773545
2019-03-13 01:11:01.698732,15.141479191161695,14.21519707225129
2019-03-13 01:11:01.698834,15.138474123296037,14.217312640028712
2019-03-13 01:11:01.698924,15.137272096149774,14.224524802906291
2019-03-13 01:11:01.700942,15.139748272071076,14.23803558803029
2019-03-13 01:11:01.701143,15.140974339760264,14.243084102044595
2019-03-13 01:11:01.701242,15.139507866641823,14.249791413520743
2019-03-13 01:11:01.718520,15.139195339583795,14.228178965430931
2019-03-13 01:11:01.718864,15.140421407272983,14.246521899682907
2019-03-13 01:11:01.718979,15.134868041857247,14.213394031531895
2019-03-13 01:11:01.719070,15.139892515328627,14.237098006856204
2019-03-13 01:11:01.720985,15.141310907361218,14.221014883639203
2019-03-13 01:11:01.721188,15.139988677500329,14.211302504297397
2019-03-13 01:11:01.721288,15.13830583949556,14.226808654484191
2019-03-13 01:11:01.722980,15.14099838030319,14.216062531796599
2019-03-13 01:11:01.723134,15.14333031296694,14.244694818420587
2019-03-13 01:11:01.723232,15.142440812878705,14.243757237246502
2019-03-13 01:11:01.723321,15.14236869124993,14.23762689880056
2019-03-13 01:11:01.743435,15.144796786085381,14.255344778936479
2019-03-13 01:11:01.743634,15.144436177941502,14.250079900035846
2019-03-13 01:11:01.743953,15.14287354265136,14.240199236893563
2019-03-13 01:11:01.744055,15.141647474962172,14.248469183659854
2019-03-13 01:11:01.745836,15.143017785908912,14.23534304722266
2019-03-13 01:11:01.746017,15.147922056665665,14.249022116147135
2019-03-13 01:11:01.746116,15.145926691602869,14.240079034178937
2019-03-13 01:11:01.746204,15.143594758939118,14.220966802553352
2019-03-13 01:11:01.747686,15.145854569974093,14.23493435799293
2019-03-13 01:11:01.747839,15.146094975403345,14.23986266929261
2019-03-13 01:11:01.747937,15.145950732145794,14.257893076486557
2019-03-13 01:11:01.751010,15.144844867171232,14.254094670704365
2019-03-13 01:11:01.751212,15.145181434772185,14.266691915197203
2019-03-13 01:11:01.751311,15.149388529784106,14.274769537620092
2019-03-13 01:11:01.754326,15.147609529607637,14.264840793391958
2019-03-13 01:11:01.754527,15.145926691602869,14.245271791450794
2019-03-13 01:11:01.754664,15.148643272953423,14.247411399771142
2019-03-13 01:11:01.754755,15.148018218837366,14.251257886639184
2019-03-13 01:11:01.771117,15.145710326716541,14.234189101162247
2019-03-13 01:11:01.771320,15.147080637663281,14.253469616588308
2019-03-13 01:11:01.771418,15.153499462624326,14.272822253643145
2019-03-13 01:11:01.773448,15.148883678382676,14.245199669822018
2019-03-13 01:11:01.773586,15.152321476020989,14.261979968783852
2019-03-13 01:11:01.773673,15.148547110781722,14.251209805553334
2019-03-13 01:11:01.773752,15.154268759997935,14.266066861081146
2019-03-13 01:11:01.779801,15.151792584076633,14.270297996635993
2019-03-13 01:11:01.780030,15.151888746248334,14.26960082089116
2019-03-13 01:11:01.780152,15.152225313849288,14.276091767480981
2019-03-13 01:11:01.793527,15.150566516387444,14.26087410380929
2019-03-13 01:11:01.793728,15.154893814113992,14.28950639043328
2019-03-13 01:11:01.793826,15.151696421904932,14.249310602662238
2019-03-13 01:11:01.793915,15.14977317847091,14.24493522384984
2019-03-13 01:11:01.794001,15.151023286703024,14.255152454593077
2019-03-13 01:11:01.795580,15.15241763819269,14.264239779818826
2019-03-13 01:11:01.795784,15.151840665162483,14.25731610345635
2019-03-13 01:11:01.795883,15.154413003255486,14.283640497959514
2019-03-13 01:11:01.798065,15.15479765194229,14.264287860904677
2019-03-13 01:11:01.798265,15.15520634117202,14.282823119500055
2019-03-13 01:11:01.798365,15.151696421904932,14.268807482974626
2019-03-13 01:11:01.802368,15.155110179000319,14.287895674057285
2019-03-13 01:11:01.802619,15.15753827383577,14.297343607426916
2019-03-13 01:11:01.802723,15.156504530489984,14.279385321861742
2019-03-13 01:11:01.821045,15.15931727401224,14.282919281671756
2019-03-13 01:11:01.821277,15.15652857103291,14.268254550487345
2019-03-13 01:11:01.821430,15.151888746248334,14.250176062207547
2019-03-13 01:11:01.821530,15.154316841083785,14.274000240246483
2019-03-13 01:11:01.821619,15.155086138457394,14.271572145411032
2019-03-13 01:11:01.822941,15.151984908420035,14.275009943049344
2019-03-13 01:11:01.823124,15.158523936095706,14.30280081067095
2019-03-13 01:11:01.823221,15.157658476550397,14.287150417226602
2019-03-13 01:11:01.825900,15.15799504415135,14.288881336317221
2019-03-13 01:11:01.826054,15.15698534134849,14.294098134132005
2019-03-13 01:11:01.826151,15.160543341701429,14.314845122676507
2019-03-13 01:11:01.843455,15.157706557636248,14.288352444372865
2019-03-13 01:11:01.843659,15.161312639075037,14.309916811376828
2019-03-13 01:11:01.843759,15.157586354921621,14.291958525811657
2019-03-13 01:11:01.843846,15.158235449580603,14.285611822479385
2019-03-13 01:11:01.847940,15.160254855186325,14.276067726938056
2019-03-13 01:11:01.848140,15.163067598708583,14.292872066442817
2019-03-13 01:11:01.848238,15.158427773924005,14.264720590677332
2019-03-13 01:11:01.851085,15.161336679617962,14.30087756723693
2019-03-13 01:11:01.851286,15.159990409214148,14.30193535112564
2019-03-13 01:11:01.851385,15.160879909302382,14.299771702262367
2019-03-13 01:11:01.851474,15.16273103110763,14.3118881358967
2019-03-13 01:11:01.853489,15.165880342230839,14.319388785289382
2019-03-13 01:11:01.853726,15.163548409567088,14.31234490621228
2019-03-13 01:11:01.853881,15.158836463153735,14.308762865316416
2019-03-13 01:11:01.854022,15.16155304450429,14.30681558133947
2019-03-13 01:11:01.870892,15.159942328128297,14.290852660837094
2019-03-13 01:11:01.871166,15.162586787850078,14.297175323626439
2019-03-13 01:11:01.871351,15.167442977520981,14.322682339670143
2019-03-13 01:11:01.872861,15.16501488268553,14.29037184997859
2019-03-13 01:11:01.873043,15.157297868406518,14.281789376154268
2019-03-13 01:11:01.873212,15.162202139163272,14.310758230379212
2019-03-13 01:11:01.873378,15.163981139339743,14.311551568295746
2019-03-13 01:11:01.876888,15.166264990917643,14.33422180027427
2019-03-13 01:11:01.876994,15.162947395993957,14.307031946225797
2019-03-13 01:11:01.877058,15.167154491005878,14.339150111573948
2019-03-13 01:11:01.894775,15.16739489643513,14.33107248915106
2019-03-13 01:11:01.894982,15.164510031284099,14.326192258937231
2019-03-13 01:11:01.895084,15.165639936801586,14.324942150705118
2019-03-13 01:11:01.895174,15.162875274365181,14.309363878889547
2019-03-13 01:11:01.897213,15.166264990917643,14.316984730996856
2019-03-13 01:11:01.897417,15.170784612987593,14.334967057104953
2019-03-13 01:11:01.897518,15.164918720513828,14.297127242540588
2019-03-13 01:11:01.899007,15.168236315437515,14.324052650616883
2019-03-13 01:11:01.899167,15.16963066692718,14.326408623823559
2019-03-13 01:11:01.899266,15.168500761409693,14.329269448431665
2019-03-13 01:11:01.899355,15.168885410096497,14.32376416410178
2019-03-13 01:11:01.902302,15.166264990917643,14.32741832662642
2019-03-13 01:11:01.902497,15.171241383303173,14.346626720423705
2019-03-13 01:11:01.902627,15.17049612647249,14.325326799391922
2019-03-13 01:11:01.902720,15.165087004314305,14.321624555781431
2019-03-13 01:11:01.916788,15.165808220602063,14.312200662954728
2019-03-13 01:11:01.917002,15.165447612458184,14.322706380213068
2019-03-13 01:11:01.917104,15.173044424022567,14.33975112514708
2019-03-13 01:11:01.919805,15.170760572444667,14.336072922079515
2019-03-13 01:11:01.920008,15.168957531725273,14.321336069266328
2019-03-13 01:11:01.920107,15.16775550457901,14.31503744701991
2019-03-13 01:11:01.920195,15.171577950904126,14.32837994834343
2019-03-13 01:11:01.921879,15.172058761762631,14.348742288201128
2019-03-13 01:11:01.922079,15.169871072356433,14.333067854213857
2019-03-13 01:11:01.922179,15.171553910361201,14.346506517709079
2019-03-13 01:11:01.929891,15.172996342936717,14.355810207821156
2019-03-13 01:11:01.930073,15.173140586194268,14.361507816494443
2019-03-13 01:11:01.930160,15.172900180765016,14.326817313053288
2019-03-13 01:11:01.930239,15.1714577481895,14.327754894227374
2019-03-13 01:11:01.970958,15.170736531901742,14.33604888153659
2019-03-13 01:11:01.971151,15.172299167191884,14.33655373293802
2019-03-13 01:11:01.971251,15.172731896964539,14.329317529517516
2019-03-13 01:11:01.973019,15.171698153618753,14.31006105463438
2019-03-13 01:11:01.973220,15.17277997805039,14.328812678116085
2019-03-13 01:11:01.973319,15.17232320773481,14.3255912453641
2019-03-13 01:11:01.973430,15.172539572621137,14.333428462357736
2019-03-13 01:11:01.976203,15.173453113252297,14.32289870455647
2019-03-13 01:11:01.976493,15.174967667456588,14.331841786524668
2019-03-13 01:11:01.976600,15.176289897317478,14.359752856860899
2019-03-13 01:11:01.990428,15.174054126825428,14.336169084251216
2019-03-13 01:11:01.990665,15.178573748895378,14.368695938829097
2019-03-13 01:11:01.990768,15.174943626913663,14.350881896521477
2019-03-13 01:11:01.990859,15.177299600120339,14.372350101353737
2019-03-13 01:11:01.993659,15.172804018593315,14.340736787407016
2019-03-13 01:11:01.993853,15.178693951610004,14.368599776657396
2019-03-13 01:11:01.993951,15.17556868102972,14.350160680233719
2019-03-13 01:11:01.995442,15.178092938036873,14.357805572883953
2019-03-13 01:11:01.995599,15.180376789614773,14.37218181755326
2019-03-13 01:11:01.995699,15.177251519034488,14.364248438387923
2019-03-13 01:11:01.995789,15.177251519034488,14.355641924020679
2019-03-13 01:11:01.998678,15.178669911067079,14.368383411771068
2019-03-13 01:11:01.998881,15.180521032872324,14.376461034193957
2019-03-13 01:11:01.998981,15.180761438301577,14.37624466930763
2019-03-13 01:11:01.999246,15.177059194691086,14.354031207644686
2019-03-13 01:11:02.001017,15.174342613340531,14.337443233026255
2019-03-13 01:11:02.001220,15.174751302570261,14.340087692748034
2019-03-13 01:11:02.001319,15.179343046268986,14.356964153881568
2019-03-13 01:11:02.015416,15.182251951962943,14.360642356949134
2019-03-13 01:11:02.015551,15.180689316672801,14.349583707203513
2019-03-13 01:11:02.015613,15.18155477621811,14.37085958769237
2019-03-13 01:11:02.015668,15.180232546357221,14.364080154587446
2019-03-13 01:11:02.017985,15.179102640839734,14.359656694689198
2019-03-13 01:11:02.018122,15.179150721925584,14.369200790230527
2019-03-13 01:11:02.018210,15.181146086988381,14.38405784575834
2019-03-13 01:11:02.021111,15.18145861404641,14.382615413182824
2019-03-13 01:11:02.021295,15.185497425257854,14.378552561428455
2019-03-13 01:11:02.021383,15.17967961386994,14.348309558428474
2019-03-13 01:11:02.021463,15.17689091089061,14.348910572001605
2019-03-13 01:11:02.023528,15.181987505990765,14.370787466063595
2019-03-13 01:11:02.023707,15.183502060195057,14.382302886124796
2019-03-13 01:11:02.023796,15.180064262556744,14.349223099059634
2019-03-13 01:11:02.025913,15.181073965359605,14.356964153881568
2019-03-13 01:11:02.026052,15.183910749424786,14.368912303715424
2019-03-13 01:11:02.026140,15.183502060195057,14.373311723070747
2019-03-13 01:11:02.026220,15.184463681912067,14.381437426579486
2019-03-13 01:11:02.040826,15.18470408734132,14.37862468305723
2019-03-13 01:11:02.041006,15.185040654942274,14.39451548193083
2019-03-13 01:11:02.041126,15.179150721925584,14.348261477342623
2019-03-13 01:11:02.043669,15.182035587076616,14.373287682527822
2019-03-13 01:11:02.043855,15.185040654942274,14.371508682351353
2019-03-13 01:11:02.043943,15.187060060547996,14.375355169219395
2019-03-13 01:11:02.044023,15.180977803187904,14.362325194953902
2019-03-13 01:11:02.046069,15.186435006431939,14.382519251011123
2019-03-13 01:11:02.046270,15.18648308751779,14.374489709674085
2019-03-13 01:11:02.046370,15.185064695485199,14.363599343728941
2019-03-13 01:11:02.046460,15.184631965712544,14.36939311457393
2019-03-13 01:11:02.070469,15.18607439828806,14.402761388154195
2019-03-13 01:11:02.070708,15.184367519740366,14.38629361625039
2019-03-13 01:11:02.070798,15.187829357921604,14.39273648175436
2019-03-13 01:11:02.073296,15.186651371318266,14.378360237085053
2019-03-13 01:11:02.073458,15.182300033048794,14.374489709674085
2019-03-13 01:11:02.073559,15.184872371141797,14.374657993474562
2019-03-13 01:11:02.076033,15.189079466153718,14.38994777877503
2019-03-13 01:11:02.076233,15.189127547239568,14.37670143962321
2019-03-13 01:11:02.076332,15.18602631720221,14.368143006341816
2019-03-13 01:11:02.076422,15.18612247937391,14.375451331391096
2019-03-13 01:11:02.090327,15.191267155559917,14.404324023444337
2019-03-13 01:11:02.090530,15.187588952492352,14.39725610382431
2019-03-13 01:11:02.090686,15.18835824986596,14.407521415653397
2019-03-13 01:11:02.090778,15.189031385067867,14.404083618015084
2019-03-13 01:11:02.093520,15.187204303805547,14.389154440858496
2019-03-13 01:11:02.093721,15.1874447092348,14.405598172219376
2019-03-13 01:11:02.093821,15.187324506520174,14.407833942711425
2019-03-13 01:11:02.095949,15.185785911772957,14.37218181755326
2019-03-13 01:11:02.096089,15.18785339846453,14.4099975915747
2019-03-13 01:11:02.096161,15.189512195926373,14.393433657499193
2019-03-13 01:11:02.096225,15.193959696367546,14.393169211527015
2019-03-13 01:11:02.096288,15.189007344524942,14.380884494092205
2019-03-13 01:11:02.097804,15.187877439007455,14.394587603559605
2019-03-13 01:11:02.097916,15.190257452757056,14.407184848052443
2019-03-13 01:11:02.097987,15.191122912302365,14.40054965820507
2019-03-13 01:11:02.100263,15.192324939448628,14.415214389389483
2019-03-13 01:11:02.100374,15.192757669221283,14.423844944299653
2019-03-13 01:11:02.100445,15.191483520446244,14.406463631764685
2019-03-13 01:11:02.115945,15.193238480079788,14.412978618897432
2019-03-13 01:11:02.116143,15.190281493299981,14.392544157410958
2019-03-13 01:11:02.116233,15.194728993741155,14.411584267407767
2019-03-13 01:11:02.116311,15.1920124123906,14.382831778069152
2019-03-13 01:11:02.123543,15.190065128413654,14.375547493562797
2019-03-13 01:11:02.123756,15.190666141986785,14.396679130794103
2019-03-13 01:11:02.123896,15.193647169309518,14.397544590339413
2019-03-13 01:11:02.125458,15.191170993388216,14.394395279216203
2019-03-13 01:11:02.125659,15.191772006961347,14.41105537546341
2019-03-13 01:11:02.125757,15.193959696367546,14.41497398396023
2019-03-13 01:11:02.125846,15.193551007137817,14.410069713203475
2019-03-13 01:11:02.142329,15.193647169309518,14.429181944829061
2019-03-13 01:11:02.142593,15.191844128590123,14.40420382072971
2019-03-13 01:11:02.142703,15.195402128943062,14.42908578265736
2019-03-13 01:11:02.144826,15.193238480079788,14.414252767672473
2019-03-13 01:11:02.145028,15.19982558884131,14.437211486166099
2019-03-13 01:11:02.145126,15.195450210028913,14.394852049531783
2019-03-13 01:11:02.145215,15.19196433130475,14.381701872551664
2019-03-13 01:11:02.147162,15.192901912478835,14.413844078442743
2019-03-13 01:11:02.147288,15.19525788568551,14.418051173454664
2019-03-13 01:11:02.147367,15.197421534548784,14.413892159528594
2019-03-13 01:11:02.149767,15.193959696367546,14.40273734761127
2019-03-13 01:11:02.149948,15.194320304511425,14.421032200777397
2019-03-13 01:11:02.150033,15.197205169662457,14.441562824435572
2019-03-13 01:11:02.150105,15.196724358803952,14.422955444211418
2019-03-13 01:11:02.166124,15.199200534725254,14.438533716026988
2019-03-13 01:11:02.166328,15.19790234540729,14.436466229335416
2019-03-13 01:11:02.166427,15.19516172351381,14.422041903580258
2019-03-13 01:11:02.166516,15.192445142163255,14.41182467283702
2019-03-13 01:11:02.172302,15.193623128766593,14.40405957747216
2019-03-13 01:11:02.172502,15.197806183235588,14.43548056707548
2019-03-13 01:11:02.172600,15.197806183235588,14.420214822317938
2019-03-13 01:11:02.174682,15.195834858715717,14.420575430461817
2019-03-13 01:11:02.174838,15.191531601532095,14.413820037899818
2019-03-13 01:11:02.174938,15.199344777982805,14.44050504054686
2019-03-13 01:11:02.175028,15.198888007667225,14.4441592030715
2019-03-13 01:11:02.214418,15.200883372730022,14.44603436541967
2019-03-13 01:11:02.214660,15.200258318613965,14.449904892830638
2019-03-13 01:11:02.214764,15.198214872465318,14.43913472960012
2019-03-13 01:11:02.217201,15.19795042649314,14.449424081972133
2019-03-13 01:11:02.217424,15.195882939801567,14.417786727482486
2019-03-13 01:11:02.217576,15.198839926581375,14.433533283098534
2019-03-13 01:11:02.217679,15.202734494535267,14.427042336508713
2019-03-13 01:11:02.219746,15.197661939978037,14.418652187027796
2019-03-13 01:11:02.219923,15.197205169662457,14.426104755334627
2019-03-13 01:11:02.220033,15.200258318613965,14.443462027326667
2019-03-13 01:11:02.222261,15.200090034813488,14.429254066457837
2019-03-13 01:11:02.222467,15.202710453992342,14.462694461666878
2019-03-13 01:11:02.222723,15.198527399523346,14.442885054296461
2019-03-13 01:11:02.222831,15.199585183412058,14.446010324876745
2019-03-13 01:11:02.242198,15.200667007843695,14.446539216821101
2019-03-13 01:11:02.242381,15.201219940330976,14.44557759510409
2019-03-13 01:11:02.242469,15.19972942666961,14.441851310950675
2019-03-13 01:11:02.244550,15.204417332540036,14.470940367890243
2019-03-13 01:11:02.244700,15.20073912947247,14.455722704218552
2019-03-13 01:11:02.244790,15.202782575621118,14.46334355632586
2019-03-13 01:11:02.244872,15.204200967653708,14.46466578618675
2019-03-13 01:11:02.246891,15.203335508108399,14.460699096604081
2019-03-13 01:11:02.246950,15.204633697426363,14.474834935844136
2019-03-13 01:11:02.246976,15.20475390014099,14.467935300024585
2019-03-13 01:11:02.249004,15.203696116252278,14.458607569369583
2019-03-13 01:11:02.249071,15.203696116252278,14.454328352728886
2019-03-13 01:11:02.249098,15.205691481315075,14.473584827612022
2019-03-13 01:11:02.249122,15.205282792085345,14.46466578618675
2019-03-13 01:11:02.268233,15.206364616516982,14.468175705453838
2019-03-13 01:11:02.268306,15.203575913537652,14.45096267671935
2019-03-13 01:11:02.268333,15.20525875154242,14.461372231805989
2019-03-13 01:11:02.270677,15.209441806011416,14.465266799759881
2019-03-13 01:11:02.270744,15.207903211264199,14.447933568310766
2019-03-13 01:11:02.270771,15.202397926934314,14.443413946240817
2019-03-13 01:11:02.270795,15.202253683676762,14.44182727040775
2019-03-13 01:11:02.273135,15.206556940860384,14.450121257716965
2019-03-13 01:11:02.273203,15.208552305923181,14.450578028032545
2019-03-13 01:11:02.273230,15.206100170544804,14.462237691351298
2019-03-13 01:11:02.273255,15.20622037325943,14.451275203777378
2019-03-13 01:11:02.275758,15.208816751895359,14.469185408256699
2019-03-13 01:11:02.275825,15.205859765115552,14.442404243437956
2019-03-13 01:11:02.275851,15.207061792261815,14.46430517804287
2019-03-13 01:11:02.290275,15.205547238057523,14.454761082501541
2019-03-13 01:11:02.290348,15.205427035342897,14.438966445799643
2019-03-13 01:11:02.290375,15.20480198122684,14.46065101551823
2019-03-13 01:11:02.290403,15.210427468271352,14.476229287333801
2019-03-13 01:11:02.293105,15.21114868455911,14.465939934961789
2019-03-13 01:11:02.293175,15.20891291406706,14.449904892830638
2019-03-13 01:11:02.293202,15.205499156971673,14.449952973916488
2019-03-13 01:11:02.293226,15.208359981579779,14.459424947829042
2019-03-13 01:11:02.295739,15.211004441301558,14.470988448976094
2019-03-13 01:11:02.295804,15.21160545487469,14.478633341626328
2019-03-13 01:11:02.295831,15.208095535607601,14.460771218232857
2019-03-13 01:11:02.297638,15.208384022122704,14.470459557031738
2019-03-13 01:11:02.297698,15.210018779041622,14.470387435402962
2019-03-13 01:11:02.297724,15.206653103032085,14.448630744055599
2019-03-13 01:11:02.300653,15.21215838736197,14.488153396624732
2019-03-13 01:11:02.300720,15.213721022652113,14.463535880669262
2019-03-13 01:11:02.300746,15.212350711705373,14.47069996246099
2019-03-13 01:11:02.300770,15.208263819408078,14.460843339861633
2019-03-13 01:11:02.315727,15.209153319496313,14.472286638294058
2019-03-13 01:11:02.315798,15.210307265556725,14.470315313774186
2019-03-13 01:11:02.315824,15.214322036225244,14.478489098368776
2019-03-13 01:11:02.315848,15.209057157324612,14.483681855640633
2019-03-13 01:11:02.317608,15.212446873877074,14.495461721674012
2019-03-13 01:11:02.317684,15.211629495417615,14.488946734541265
2019-03-13 01:11:02.317714,15.208239778865153,14.480917193204228
2019-03-13 01:11:02.320628,15.210812116958156,14.47836889565415
2019-03-13 01:11:02.320697,15.210764035872305,14.472791489695489
2019-03-13 01:11:02.320724,15.213288292879458,14.50531834427337
2019-03-13 01:11:02.323275,15.216846293232397,14.506135722732829
2019-03-13 01:11:02.323342,15.21215838736197,14.475508071046043
2019-03-13 01:11:02.323369,15.211966063018568,14.491519072634269
2019-03-13 01:11:02.323393,15.21078807641523,14.48668692350629
2019-03-13 01:11:02.325730,15.212254549533672,14.501928627720908
2019-03-13 01:11:02.325838,15.21297576582143,14.482407706865594
2019-03-13 01:11:02.325869,15.214081630795992,14.503226817038872
2019-03-13 01:11:02.325893,15.213672941566262,14.490605532003109
2019-03-13 01:11:02.340612,15.214273955139394,14.497000316421229
2019-03-13 01:11:02.340685,15.215524063371507,14.4988754787694
2019-03-13 01:11:02.340712,15.214105671338917,14.499596695057157
2019-03-13 01:11:02.340736,15.215235576856404,14.496495465019798
2019-03-13 01:11:02.342686,15.209225441125088,14.469305610971325
2019-03-13 01:11:02.342752,15.215019211970077,14.499716897771783
2019-03-13 01:11:02.342778,15.214754765997899,14.500582357317093
2019-03-13 01:11:02.345723,15.21662992834607,14.507049263363989
2019-03-13 01:11:02.345804,15.216197198573415,14.494788586472104
2019-03-13 01:11:02.345831,15.211797779218092,14.481446085148583
2019-03-13 01:11:02.347589,15.214658603826198,14.512530507150949
2019-03-13 01:11:02.347648,15.217735793320632,14.526714427476854
2019-03-13 01:11:02.347674,15.218793577209343,14.520680251202613
2019-03-13 01:11:02.347697,15.21576446880076,14.509621601456992
2019-03-13 01:11:02.365766,15.215379820113956,14.50120741143315
2019-03-13 01:11:02.365850,15.216509725631443,14.521906318891801
2019-03-13 01:11:02.365891,15.218577212323016,14.50709734444984
2019-03-13 01:11:02.365929,15.215500022828582,14.50221711423601
2019-03-13 01:11:02.367664,15.214273955139394,14.497673451623136
2019-03-13 01:11:02.367741,15.219610955668802,14.525151792186712
2019-03-13 01:11:02.367780,15.218937820466895,14.499764978857634
2019-03-13 01:11:02.370746,15.219082063724446,14.512891115294828
2019-03-13 01:11:02.370826,15.217230941919201,14.52034368360166
2019-03-13 01:11:02.370863,15.216942455404098,14.512482426065098
2019-03-13 01:11:02.370900,15.22129379367357,14.532892847008647
2019-03-13 01:11:02.373192,15.21804832037866,14.522242886492755
2019-03-13 01:11:02.373266,15.220957226072617,14.539744401742349
2019-03-13 01:11:02.373304,15.220644699014588,14.529599292627886
2019-03-13 01:11:02.390846,15.217807914949407,14.515703858817083
2019-03-13 01:11:02.390903,15.218625293408866,14.52810877896652
2019-03-13 01:11:02.390939,15.22256794244861,14.530416671087345
2019-03-13 01:11:02.390974,15.21718286083335,14.509212912227262
2019-03-13 01:11:02.392619,15.218625293408866,14.527411603221687
2019-03-13 01:11:02.392657,15.220957226072617,14.508732101368757
2019-03-13 01:11:02.392691,15.22393825339535,14.5332294146096
2019-03-13 01:11:02.395631,15.218529131237165,14.526522103133452
2019-03-13 01:11:02.395670,15.221486118016973,14.532580319950618
2019-03-13 01:11:02.395704,15.221510158559898,14.541739766805145
2019-03-13 01:11:02.395738,15.220500455757037,14.53368618492518
2019-03-13 01:11:02.399451,15.222688145163236,14.54628342941802
2019-03-13 01:11:02.399492,15.224659469683107,14.555611160073022
2019-03-13 01:11:02.399527,15.220236009784859,14.519670548399752
2019-03-13 01:11:02.416848,15.223337239822218,14.536210441932333
2019-03-13 01:11:02.416905,15.223601685794396,14.523156427123915
2019-03-13 01:11:02.416941,15.225789375200595,14.517675183336955
2019-03-13 01:11:02.416975,15.223745929051947,14.532820725379871
2019-03-13 01:11:02.417008,15.228001105149719,14.527363522135836
2019-03-13 01:11:02.418734,15.223601685794396,14.517675183336955
2019-03-13 01:11:02.418772,15.225573010314267,14.545225645529309
2019-03-13 01:11:02.418807,15.226871199632232,14.549601024341706
2019-03-13 01:11:02.421377,15.22494795619821,14.54130703703249
2019-03-13 01:11:02.421415,15.223962293938275,14.53409487415491
2019-03-13 01:11:02.421449,15.22759241591999,14.553279227409272
2019-03-13 01:11:02.440588,15.225476848142566,14.53938379359847
2019-03-13 01:11:02.440645,15.226053821172773,14.54724505113503
2019-03-13 01:11:02.440682,15.226919280718082,14.53318133352375
2019-03-13 01:11:02.440717,15.222688145163236,14.524767143499908
2019-03-13 01:11:02.443267,15.225020077826986,14.539552077398946
2019-03-13 01:11:02.443348,15.227977064606794,14.563784944667612
2019-03-13 01:11:02.443429,15.226246145516175,14.536691252790838
2019-03-13 01:11:02.445162,15.22713564560441,14.53505649587192
2019-03-13 01:11:02.445238,15.22764049700584,14.549408699998304
2019-03-13 01:11:02.445276,15.229707983697413,14.562078066119918
2019-03-13 01:11:02.445314,15.227448172662438,14.559914417256644
2019-03-13 01:11:02.449466,15.2262701860591,14.544840996842504
2019-03-13 01:11:02.449533,15.229299294467683,14.563929187925163
2019-03-13 01:11:02.449559,15.229179091753057,14.569434472255049
2019-03-13 01:11:02.449583,15.230188794555918,14.542509064178754
2019-03-13 01:11:02.466621,15.223745929051947,14.532604360493544
2019-03-13 01:11:02.466779,15.225741294114744,14.524839265128684
2019-03-13 01:11:02.466852,15.23134274061633,14.548471118824219
2019-03-13 01:11:02.469701,15.227568375377064,14.533806387639807
2019-03-13 01:11:02.469854,15.23266497047722,14.55318306523757
2019-03-13 01:11:02.469927,15.228073226778495,14.534695887728041
2019-03-13 01:11:02.472186,15.233915078709334,14.577560175763788
2019-03-13 01:11:02.472310,15.232112037989939,14.555779443873499
2019-03-13 01:11:02.472381,15.23042919998517,14.550754970402119
2019-03-13 01:11:02.472445,15.232809213734772,14.578545838023723
2019-03-13 01:11:02.475960,15.231631227131434,14.562943525665228
2019-03-13 01:11:02.476073,15.232737092105996,14.572343377949005
2019-03-13 01:11:02.476144,15.229491618811085,14.556043889845677
2019-03-13 01:11:02.492142,15.233746794908857,14.57328095912309
2019-03-13 01:11:02.492291,15.234588213911241,14.55820753870895
2019-03-13 01:11:02.492379,15.234275686853213,14.557462281878268
2019-03-13 01:11:02.492457,15.232640929934295,14.556067930388602
2019-03-13 01:11:02.492533,15.235333470741924,14.548326875566667
2019-03-13 01:11:02.494011,15.228025145692644,14.540706023459359
2019-03-13 01:11:02.494149,15.236511457345262,14.576165824274122
2019-03-13 01:11:02.494235,15.231438902788032,14.56734294502055
2019-03-13 01:11:02.498358,15.235285389656074,14.58729659564852
2019-03-13 01:11:02.498495,15.234107403052736,14.578401594766172
2019-03-13 01:11:02.498610,15.233386186764978,14.57008356691403
2019-03-13 01:11:02.515659,15.235069024769746,14.583161622265374
2019-03-13 01:11:02.515846,15.232761132648921,14.5787141218242
2019-03-13 01:11:02.515933,15.233794875994707,14.57277610772166
2019-03-13 01:11:02.516012,15.235838322143355,14.566549607104017
2019-03-13 01:11:02.518508,15.232280321790416,14.556885308848061
2019-03-13 01:11:02.518745,15.238170254807105,14.56222230937747
2019-03-13 01:11:02.518846,15.235958524857981,14.552077200263009
2019-03-13 01:11:02.521084,15.234059321966885,14.57373772943867
2019-03-13 01:11:02.521308,15.235958524857981,14.587585082163622
2019-03-13 01:11:02.521409,15.236415295173561,14.587008109133416
2019-03-13 01:11:02.521498,15.238675106208536,14.595446339700183
2019-03-13 01:11:02.524697,15.235621957257028,14.573449242923568
2019-03-13 01:11:02.524902,15.236751862774515,14.584724257555516
2019-03-13 01:11:02.525003,15.230645564871498,14.549817389228034
2019-03-13 01:11:02.542219,15.233698713823006,14.568785377596067
2019-03-13 01:11:02.542423,15.239780971183098,14.592946123235956
2019-03-13 01:11:02.542523,15.23718459254717,14.558423903595278
2019-03-13 01:11:02.542656,15.236150849201383,14.560779876801954
2019-03-13 01:11:02.542745,15.23627105191601,14.554024484239955
2019-03-13 01:11:02.543851,15.235886403229205,14.585445473843274
2019-03-13 01:11:02.544007,15.236222970830159,14.583546270952178
2019-03-13 01:11:02.544107,15.240357944213304,14.59977363742673
2019-03-13 01:11:02.546633,15.236920146574992,14.589820852655672
2019-03-13 01:11:02.546837,15.239829052268949,14.592681677263778
2019-03-13 01:11:02.546939,15.240694511814258,14.603403759408446
2019-03-13 01:11:02.567289,15.239035714352415,14.611120773687455
2019-03-13 01:11:02.567493,15.238362579150508,14.5946049206978
2019-03-13 01:11:02.567593,15.242016741675148,14.581623027518157
2019-03-13 01:11:02.567681,15.23901167380949,14.573088634779689
2019-03-13 01:11:02.569724,15.238386619693433,14.567511228821028
2019-03-13 01:11:02.570003,15.237761565577376,14.575685013415617
2019-03-13 01:11:02.570110,15.237881768292002,14.574410864640578
2019-03-13 01:11:02.571633,15.241199363215689,14.59972555634088
2019-03-13 01:11:02.571848,15.241127241586913,14.600807380772517
2019-03-13 01:11:02.571976,15.24317068773556,14.605928016415598
2019-03-13 01:11:02.572069,15.239252079238742,14.5877533659641
2019-03-13 01:11:02.574713,15.240958957786436,14.603620124294773
2019-03-13 01:11:02.574919,15.24088683615766,14.601817083575378
2019-03-13 01:11:02.575019,15.24312260664971,14.611481381831334
2019-03-13 01:11:02.592088,15.243314930993112,14.620087896198578
2019-03-13 01:11:02.592248,15.244781404111553,14.586671541532462
2019-03-13 01:11:02.592338,15.241487849730792,14.585589717100826
2019-03-13 01:11:02.592415,15.238290457521732,14.579315135397332
2019-03-13 01:11:02.594845,15.243771701308692,14.611577544003035
2019-03-13 01:11:02.595053,15.246103633972442,14.608332070708125
2019-03-13 01:11:02.595155,15.243338971536037,14.587537001077772
2019-03-13 01:11:02.596921,15.24362745805114,14.610567841200174
