Date_Time,CH_1_mV,CH_2_mV
2019-03-04 20:51:13.187189,-8.308363553885249,-0.7367464784876281
2019-03-04 20:51:13.187399,-8.314277527444863,-0.7404487220981187
2019-03-04 20:51:13.187500,-8.316801784452016,-0.7418190330448587
2019-03-04 20:51:13.187590,-8.31444581124534,-0.7416747897873072
2019-03-04 20:51:13.256003,-8.313772676043433,-0.7393909382094072
2019-03-04 20:51:13.256208,-8.310959932521177,-0.7388139651792008
2019-03-04 20:51:13.256307,-8.307978905198445,-0.7386697219216493
2019-03-04 20:51:13.325902,-8.308531837685726,-0.7379725461768166
2019-03-04 20:51:13.326106,-8.309156891801782,-0.7395351814669587
2019-03-04 20:51:13.326205,-8.311584986637234,-0.7430451007340472
2019-03-04 20:51:13.326294,-8.314085203101461,-0.7389822489796777
2019-03-04 20:51:13.396085,-8.317763406169027,-0.7423238844462893
2019-03-04 20:51:13.396289,-8.319037554944066,-0.7413141816434282
2019-03-04 20:51:13.396388,-8.315431473505276,-0.7417949925019335
2019-03-04 20:51:13.465969,-8.312642770525946,-0.7391745733230798
2019-03-04 20:51:13.466174,-8.309854067546615,-0.7389341678938272
2019-03-04 20:51:13.466273,-8.310671446006074,-0.7377081002046387
2019-03-04 20:51:13.466362,-8.311344581207981,-0.7395832625528093
2019-03-04 20:51:13.535954,-8.31115225686458,-0.7389822489796777
2019-03-04 20:51:13.536156,-8.314830459932145,-0.7386216408357987
2019-03-04 20:51:13.536255,-8.315960365449632,-0.7400640734113145
2019-03-04 20:51:13.536345,-8.315551676219902,-0.7400881139542398
2019-03-04 20:51:13.606070,-8.31257064889717,-0.7388139651792008
2019-03-04 20:51:13.606272,-8.309685783746138,-0.7385495192070229
2019-03-04 20:51:13.606371,-8.310479121662672,-0.7380687083485177
2019-03-04 20:51:13.675403,-8.309757905374914,-0.7362175865432723
2019-03-04 20:51:13.675609,-8.31434964907364,-0.7385014381211724
2019-03-04 20:51:13.675709,-8.31302741921275,-0.7383571948636208
2019-03-04 20:51:13.675799,-8.31398904092976,-0.7429008574764956
2019-03-04 20:51:13.748483,-8.314229446359013,-0.7392466949518556
2019-03-04 20:51:13.748686,-8.309445378316886,-0.7384533570353219
2019-03-04 20:51:13.748785,-8.309156891801782,-0.7362656676291228
2019-03-04 20:51:13.818431,-8.308820324200829,-0.7395351814669587
2019-03-04 20:51:13.818635,-8.306344148279527,-0.7373474920607598
2019-03-04 20:51:13.818734,-8.309349216145185,-0.7375398164041619
2019-03-04 20:51:13.818824,-8.31074356763485,-0.7382369921489945
2019-03-04 20:51:13.888501,-8.310671446006074,-0.7403044788405672
2019-03-04 20:51:13.888708,-8.318821190057738,-0.7416747897873072
2019-03-04 20:51:13.888807,-8.315888243820856,-0.7415545870726808
2019-03-04 20:51:13.958429,-8.307474053797014,-0.7388139651792008
2019-03-04 20:51:13.958633,-8.310118513518793,-0.7378042623763398
2019-03-04 20:51:13.958731,-8.31038295949097,-0.7405448842698198
2019-03-04 20:51:13.958822,-8.308700121486202,-0.7374196136895356
2019-03-04 20:51:14.028533,-8.314878541017995,-0.7403044788405672
2019-03-04 20:51:14.028737,-8.31800381159828,-0.7429489385623461
2019-03-04 20:51:14.028836,-8.316489257393988,-0.7446317765671145
2019-03-04 20:51:14.098497,-8.314469851788266,-0.7422517628175135
2019-03-04 20:51:14.098700,-8.310310837862195,-0.7398236679820619
2019-03-04 20:51:14.098800,-8.311104175778729,-0.7397996274391366
2019-03-04 20:51:14.098890,-8.307882743026743,-0.7428527763906451
2019-03-04 20:51:14.098977,-8.30658455370878,-0.7379485056338914
2019-03-04 20:51:14.167824,-8.309757905374914,-0.7422517628175135
2019-03-04 20:51:14.168029,-8.315239149161874,-0.7379244650909661
2019-03-04 20:51:14.168127,-8.316609460108614,-0.7401842761259408
2019-03-04 20:51:14.238492,-8.316609460108614,-0.7429248980194209
2019-03-04 20:51:14.238698,-8.311104175778729,-0.7423479249892145
2019-03-04 20:51:14.238796,-8.307690418683341,-0.7392707354947808
2019-03-04 20:51:14.238886,-8.310935891978252,-0.7407372086132219
2019-03-04 20:51:14.308047,-8.30567101307762,-0.7399919517825387
2019-03-04 20:51:14.308251,-8.308940526915455,-0.7427806547618693
2019-03-04 20:51:14.308373,-8.317811487254877,-0.7424681277038409
2019-03-04 20:51:14.378529,-8.319085636029916,-0.7442952089661609
2019-03-04 20:51:14.378735,-8.315479554591127,-0.7442230873373851
2019-03-04 20:51:14.378834,-8.315215108618949,-0.7433095467062251
2019-03-04 20:51:14.378924,-8.307377891625313,-0.7419873168453356
2019-03-04 20:51:14.447915,-8.306752837509256,-0.7368907217451797
2019-03-04 20:51:14.448118,-8.30617586447905,-0.7382610326919198
2019-03-04 20:51:14.448216,-8.309661743203213,-0.7403525599264177
2019-03-04 20:51:14.589412,-8.314325608530714,-0.740929532956624
2019-03-04 20:51:14.589616,-8.3176432034544,-0.7439346008222819
2019-03-04 20:51:14.589714,-8.315551676219902,-0.7415305465297556
2019-03-04 20:51:14.589805,-8.31723451422467,-0.7415786276156061
2019-03-04 20:51:14.589894,-8.318196135941681,-0.7417949925019335
2019-03-04 20:51:14.589980,-8.314061162558536,-0.7429729791052714
2019-03-04 20:51:14.590067,-8.310911851435327,-0.7451847090543957
2019-03-04 20:51:14.590154,-8.309637702660288,-0.7391745733230798
2019-03-04 20:51:14.590240,-8.311176297407505,-0.7407612491561472
2019-03-04 20:51:14.590326,-8.31216195966744,-0.7422517628175135
2019-03-04 20:51:14.590413,-8.31211387858159,-0.7417949925019335
2019-03-04 20:51:14.590499,-8.317619162911475,-0.7423479249892145
2019-03-04 20:51:14.590583,-8.314734297760443,-0.744030762993983
2019-03-04 20:51:14.590669,-8.315094905904322,-0.7434057088779261
2019-03-04 20:51:14.590755,-8.308700121486202,-0.7362897081720481
2019-03-04 20:51:14.590840,-8.311320540665056,-0.7406650869844461
2019-03-04 20:51:14.590927,-8.306824959138032,-0.7426364115043177
2019-03-04 20:51:14.591013,-8.310983973064102,-0.7394149787523324
2019-03-04 20:51:14.591099,-8.314590054502892,-0.7409535734995493
2019-03-04 20:51:14.591185,-8.315191068076023,-0.7445115738524882
2019-03-04 20:51:14.591270,-8.318027852141205,-0.7456895604558262
2019-03-04 20:51:14.591356,-8.315431473505276,-0.7454251144836483
2019-03-04 20:51:14.591442,-8.313965000386835,-0.7421556006458124
2019-03-04 20:51:14.591527,-8.305574850905918,-0.7435259115925524
2019-03-04 20:51:14.591612,-8.30795486465552,-0.7419632763024103
2019-03-04 20:51:14.591698,-8.307762540312117,-0.7427085331330935
2019-03-04 20:51:14.591784,-8.30809910791307,-0.7397515463532861
2019-03-04 20:51:14.591869,-8.308531837685726,-0.7440067224510577
2019-03-04 20:51:14.591955,-8.313460148985405,-0.7472521957459684
2019-03-04 20:51:14.592040,-8.310022351347092,-0.7467233038016126
2019-03-04 20:51:14.592126,-8.309661743203213,-0.7440788440798335
2019-03-04 20:51:14.592212,-8.306824959138032,-0.7414584249009798
2019-03-04 20:51:14.592298,-8.307161526738986,-0.7405448842698198
2019-03-04 20:51:14.592382,-8.309036689087156,-0.7385735597499482
2019-03-04 20:51:14.592467,-8.309060729630081,-0.739655384181585
2019-03-04 20:51:14.729507,-8.317835527797802,-0.7386937624645745
2019-03-04 20:51:14.729701,-8.315383392419426,-0.7434778305067019
2019-03-04 20:51:14.729800,-8.312258121839141,-0.7410497356712503
2019-03-04 20:51:14.729889,-8.311464783922608,-0.7448962225392926
2019-03-04 20:51:14.729977,-8.310431040576821,-0.7415786276156061
2019-03-04 20:51:14.730064,-8.30800294574137,-0.7399438706966882
2019-03-04 20:51:14.730149,-8.310671446006074,-0.7375398164041619
2019-03-04 20:51:14.730235,-8.310911851435327,-0.740015992325464
2019-03-04 20:51:14.730321,-8.312282162382067,-0.7404246815551935
2019-03-04 20:51:14.730406,-8.31495066264677,-0.7414584249009798
2019-03-04 20:51:14.730491,-8.319326041459169,-0.7389822489796777
2019-03-04 20:51:14.730577,-8.317210473681746,-0.7411939789288019
2019-03-04 20:51:14.730662,-8.31403712201561,-0.7411939789288019
2019-03-04 20:51:14.730747,-8.30992618917539,-0.7399919517825387
2019-03-04 20:51:14.730832,-8.30932517560226,-0.7397996274391366
2019-03-04 20:51:14.730916,-8.310479121662672,-0.7360012216569449
2019-03-04 20:51:14.731001,-8.30891648637253,-0.7380927488914429
2019-03-04 20:51:14.731086,-8.311032054149953,-0.7444634927666377
2019-03-04 20:51:14.731172,-8.312835094869348,-0.7419632763024103
2019-03-04 20:51:14.731257,-8.317282595310521,-0.7411458978429514
2019-03-04 20:51:14.731469,-8.315191068076023,-0.7431893439915987
2019-03-04 20:51:14.731609,-8.309902148632466,-0.740833370784923
2019-03-04 20:51:14.731752,-8.314373689616565,-0.7428768169335703
2019-03-04 20:51:14.731899,-8.313604392242956,-0.7390303300655282
2019-03-04 20:51:14.732046,-8.310863770349476,-0.7412661005575777
2019-03-04 20:51:14.732186,-8.311681148808935,-0.740472762641044
2019-03-04 20:51:14.732337,-8.313195703013227,-0.7397996274391366
2019-03-04 20:51:14.732490,-8.315527635676977,-0.7404246815551935
2019-03-04 20:51:14.732634,-8.317114311510045,-0.7390543706084535
2019-03-04 20:51:14.732781,-8.31718643313882,-0.738741843550425
2019-03-04 20:51:14.732979,-8.313412067899554,-0.7400640734113145
2019-03-04 20:51:14.733140,-8.312907216498123,-0.7420113573882609
2019-03-04 20:51:14.733295,-8.311801351523561,-0.740568924812745
2019-03-04 20:51:14.733450,-8.310983973064102,-0.7380927488914429
2019-03-04 20:51:14.733609,-8.310094472975868,-0.740929532956624
2019-03-04 20:51:14.733765,-8.314614095045817,-0.7421556006458124
2019-03-04 20:51:14.868621,-8.317330676396372,-0.7457136009987515
2019-03-04 20:51:14.868817,-8.317162392595895,-0.7411699383858766
2019-03-04 20:51:14.868950,-8.310935891978252,-0.7410497356712503
2019-03-04 20:51:14.869044,-8.304781512989384,-0.7374196136895356
2019-03-04 20:51:14.869131,-8.304420904845506,-0.7405208437268945
2019-03-04 20:51:14.869217,-8.301968769467129,-0.7381408299772935
2019-03-04 20:51:14.869302,-8.308147188998921,-0.7407372086132219
2019-03-04 20:51:14.869386,-8.309204972887633,-0.7435499521354777
2019-03-04 20:51:14.869471,-8.317258554767596,-0.7390303300655282
2019-03-04 20:51:14.869556,-8.3175470412827,-0.744030762993983
2019-03-04 20:51:14.869642,-8.316705622280315,-0.742660452047243
2019-03-04 20:51:14.869726,-8.30795486465552,-0.7362897081720481
2019-03-04 20:51:14.869811,-8.307786580855042,-0.7364820325154502
2019-03-04 20:51:14.869896,-8.30795486465552,-0.7416988303302324
2019-03-04 20:51:14.869982,-8.307810621397968,-0.7405448842698198
2019-03-04 20:51:14.870066,-8.30658455370878,-0.7403285193834924
2019-03-04 20:51:14.870151,-8.313147621927376,-0.7389822489796777
2019-03-04 20:51:14.870236,-8.317474919653923,-0.7420594384741114
2019-03-04 20:51:14.870322,-8.31809997376998,-0.7391745733230798
2019-03-04 20:51:14.870408,-8.311128216321654,-0.7412180194717272
2019-03-04 20:51:14.870494,-8.303771810186523,-0.7380687083485177
2019-03-04 20:51:14.870579,-8.306488391537078,-0.7429970196481966
2019-03-04 20:51:14.870665,-8.306560513165854,-0.7451125874256199
2019-03-04 20:51:14.870750,-8.311272459579206,-0.7437903575647303
2019-03-04 20:51:14.870836,-8.314325608530714,-0.7458338037133778
2019-03-04 20:51:14.938563,-8.322499393125304,-0.7510986826140105
2019-03-04 20:51:14.938761,-8.320912717292236,-0.7500168581823736
2019-03-04 20:51:14.938859,-8.317931689969503,-0.7498966554677473
2019-03-04 20:51:14.938949,-8.314590054502892,-0.7451606685114704
2019-03-04 20:51:15.007952,-8.317042189881269,-0.7459059253421536
2019-03-04 20:51:15.008154,-8.31398904092976,-0.7455693577411999
2019-03-04 20:51:15.008252,-8.311945594781113,-0.7449202630822178
2019-03-04 20:51:15.078475,-8.311897513695262,-0.7449202630822178
2019-03-04 20:51:15.078678,-8.31531127079065,-0.742203681731663
2019-03-04 20:51:15.078776,-8.317162392595895,-0.7469877497737905
2019-03-04 20:51:15.078868,-8.318388460285083,-0.7416747897873072
2019-03-04 20:51:15.148045,-8.313171662470301,-0.7429489385623461
2019-03-04 20:51:15.148246,-8.312282162382067,-0.7420594384741114
2019-03-04 20:51:15.148344,-8.305983540135648,-0.7397515463532861
2019-03-04 20:51:15.219443,-8.307882743026743,-0.7430691412769724
2019-03-04 20:51:15.219645,-8.30946941885981,-0.7423479249892145
2019-03-04 20:51:15.219767,-8.312089838038665,-0.7418190330448587
2019-03-04 20:51:15.219915,-8.312306202924992,-0.7432374250774493
2019-03-04 20:51:15.220061,-8.311368621750907,-0.7424200466179903
2019-03-04 20:51:15.220210,-8.310479121662672,-0.7416267087014566
2019-03-04 20:51:15.220474,-8.306824959138032,-0.7429489385623461
2019-03-04 20:51:15.220633,-8.310166594604643,-0.7400400328683893
2019-03-04 20:51:15.220790,-8.312642770525946,-0.7405208437268945
2019-03-04 20:51:15.220993,-8.312594689440095,-0.7397755868962114
2019-03-04 20:51:15.221154,-8.308147188998921,-0.7428287358477198
2019-03-04 20:51:15.221312,-8.311320540665056,-0.740472762641044
2019-03-04 20:51:15.221413,-8.312762973240572,-0.7424681277038409
2019-03-04 20:51:15.221502,-8.311224378493355,-0.742756614218944
2019-03-04 20:51:15.359439,-8.307714459226267,-0.7411458978429514
2019-03-04 20:51:15.359644,-8.305021918418637,-0.7477089660615484
2019-03-04 20:51:15.359743,-8.301175431550595,-0.7473964390035199
2019-03-04 20:51:15.359833,-8.296439444594316,-0.7474685606322957
2019-03-04 20:51:15.359922,-8.295886512107035,-0.7449683441680683
2019-03-04 20:51:15.360010,-8.298218444770786,-0.7489109932078115
2019-03-04 20:51:15.360097,-8.298891579972695,-0.7495841284097189
2019-03-04 20:51:15.360183,-8.299059863773172,-0.7518439394446936
2019-03-04 20:51:15.360269,-8.309541540488587,-0.7529738449621811
2019-03-04 20:51:15.360355,-8.303699688557748,-0.748406141806381
2019-03-04 20:51:15.360440,-8.301848566752502,-0.7504015068691778
2019-03-04 20:51:15.360526,-8.299684917889229,-0.7512910069574126
2019-03-04 20:51:15.360612,-8.297328944682551,-0.7509063582706084
2019-03-04 20:51:15.360699,-8.300358053091136,-0.745761682084602
2019-03-04 20:51:15.360785,-8.301415836979848,-0.7480214931195768
2019-03-04 20:51:15.360872,-8.301127350464744,-0.7484542228922315
2019-03-04 20:51:15.361007,-8.308627999857427,-0.7464828983723599
2019-03-04 20:51:15.361096,-8.304180499416253,-0.7485263445210073
2019-03-04 20:51:15.361182,-8.305142121133263,-0.7530459665909569
2019-03-04 20:51:15.361267,-8.30444494538843,-0.7474445200893705
2019-03-04 20:51:15.361352,-8.301223512636446,-0.7460501685997052
2019-03-04 20:51:15.361438,-8.300045526033108,-0.7466271416299115
2019-03-04 20:51:15.361524,-8.29973299897508,-0.7487667499502599
2019-03-04 20:51:15.361610,-8.300021485490182,-0.7481416958342031
2019-03-04 20:51:15.361696,-8.304132418330402,-0.7537671828787148
2019-03-04 20:51:15.361781,-8.305502729277142,-0.7541037504796685
2019-03-04 20:51:15.361866,-8.304973837332787,-0.7552096154542306
2019-03-04 20:51:15.361951,-8.302137053267606,-0.753238290934359
2019-03-04 20:51:15.362037,-8.300045526033108,-0.7529017233334053
2019-03-04 20:51:15.362124,-8.303651607471897,-0.748045533662502
2019-03-04 20:51:15.362208,-8.301511999151549,-0.7518439394446936
2019-03-04 20:51:15.362294,-8.300502296348688,-0.7496802905814199
2019-03-04 20:51:15.362380,-8.30110330992182,-0.7500408987252989
2019-03-04 20:51:15.362465,-8.301968769467129,-0.7529738449621811
2019-03-04 20:51:15.362551,-8.302641904669036,-0.7534065747348359
2019-03-04 20:51:15.362636,-8.302401499239783,-0.7532863720202095
2019-03-04 20:51:15.504427,-8.298891579972695,-0.7499687770965231
2019-03-04 20:51:15.504633,-8.298458850200038,-0.7530940476768074
2019-03-04 20:51:15.504732,-8.300213809833584,-0.7499447365535978
2019-03-04 20:51:15.504822,-8.30206493163883,-0.7477089660615484
2019-03-04 20:51:15.504958,-8.301295634265221,-0.7509544393564589
2019-03-04 20:51:15.505052,-8.302665945211961,-0.7520362637880957
2019-03-04 20:51:15.505140,-8.303651607471897,-0.7502813041545515
2019-03-04 20:51:15.505226,-8.306776878052181,-0.7521324259597968
2019-03-04 20:51:15.505310,-8.29942047191705,-0.7530459665909569
2019-03-04 20:51:15.505396,-8.300165728747734,-0.750786155555982
2019-03-04 20:51:15.505481,-8.298242485313711,-0.7490311959224378
2019-03-04 20:51:15.505566,-8.295045093104651,-0.7498245338389715
2019-03-04 20:51:15.505651,-8.294612363331996,-0.750786155555982
2019-03-04 20:51:15.505735,-8.299925323318481,-0.7544643586235474
2019-03-04 20:51:15.505820,-8.302714026297812,-0.7502813041545515
2019-03-04 20:51:15.505906,-8.29809824205616,-0.7423719655321398
2019-03-04 20:51:15.505991,-8.297953998798608,-0.7452568306831715
2019-03-04 20:51:15.506075,-8.303170796613392,-0.7541758721084443
2019-03-04 20:51:15.506288,-8.305021918418637,-0.7485503850639326
2019-03-04 20:51:15.506395,-8.301295634265221,-0.7499687770965231
2019-03-04 20:51:15.506483,-8.295766309392409,-0.7478772498620252
2019-03-04 20:51:15.506569,-8.296415404051391,-0.7487427094073347
2019-03-04 20:51:15.506655,-8.298771377258067,-0.7471560335742673
2019-03-04 20:51:15.506739,-8.300935026121342,-0.7485503850639326
2019-03-04 20:51:15.506825,-8.298122282599085,-0.7480936147483526
2019-03-04 20:51:15.506910,-8.304973837332787,-0.7514592907578894
2019-03-04 20:51:15.506996,-8.305430607648367,-0.7516516151012915
2019-03-04 20:51:15.507083,-8.301463918065698,-0.7505457501267294
2019-03-04 20:51:15.507168,-8.303603526386047,-0.7492956418946157
2019-03-04 20:51:15.507255,-8.299973404404332,-0.7475647228039968
2019-03-04 20:51:15.507341,-8.295934593192886,-0.748406141806381
2019-03-04 20:51:15.507426,-8.296992377081597,-0.7481416958342031
2019-03-04 20:51:15.507512,-8.296583687851868,-0.7482859390917547
2019-03-04 20:51:15.507597,-8.29886753942977,-0.7474685606322957
2019-03-04 20:51:15.507683,-8.300526336891613,-0.752517074646601
2019-03-04 20:51:15.507768,-8.30348332367142,-0.7515314123866652
2019-03-04 20:51:15.507854,-8.300382093634061,-0.7520843448739463
2019-03-04 20:51:15.574365,-8.30170432349495,-0.754151831565519
2019-03-04 20:51:15.574568,-8.300093607118958,-0.7513631285861884
2019-03-04 20:51:15.574669,-8.297905917712757,-0.7494879662380178
2019-03-04 20:51:15.574757,-8.298170363684935,-0.7455453171982747
2019-03-04 20:51:15.574845,-8.30160816132325,-0.7511708042427863
2019-03-04 20:51:15.574931,-8.300910985578417,-0.750329385240402
2019-03-04 20:51:15.575018,-8.300622499063314,-0.7508101960989073
2019-03-04 20:51:15.575104,-8.301007147750118,-0.7560269939136895
2019-03-04 20:51:15.575190,-8.300141688204809,-0.7556904263127359
2019-03-04 20:51:15.575274,-8.298458850200038,-0.7534546558206864
2019-03-04 20:51:15.575361,-8.299204107030723,-0.7512188853286368
2019-03-04 20:51:15.575447,-8.300670580149164,-0.7490071553795126
2019-03-04 20:51:15.575531,-8.304372823759655,-0.7470598714025662
2019-03-04 20:51:15.643015,-8.30581525633517,-0.7515794934725157
2019-03-04 20:51:15.643219,-8.30535848601959,-0.7531661693055832
2019-03-04 20:51:15.643319,-8.298338647485412,-0.7536229396211632
2019-03-04 20:51:15.784352,-8.295213376905128,-0.7505938312125799
2019-03-04 20:51:15.784556,-8.297401066311327,-0.7532142503914337
2019-03-04 20:51:15.784654,-8.294011349758865,-0.7462665334860326
2019-03-04 20:51:15.784745,-8.295165295819277,-0.7476849255186231
2019-03-04 20:51:15.784832,-8.301896647838353,-0.749415844609242
2019-03-04 20:51:15.784965,-8.302088972181755,-0.7516516151012915
2019-03-04 20:51:15.785058,-8.30216109381053,-0.7537191017928643
2019-03-04 20:51:15.785145,-8.30581525633517,-0.7499206960106726
2019-03-04 20:51:15.785231,-8.297401066311327,-0.7494879662380178
2019-03-04 20:51:15.785316,-8.29353053890036,-0.746675222715762
2019-03-04 20:51:15.785402,-8.292424673925797,-0.747035830859641
2019-03-04 20:51:15.785487,-8.295093174190502,-0.747492601175221
2019-03-04 20:51:15.785573,-8.298771377258067,-0.7459540064280041
2019-03-04 20:51:15.785659,-8.299131985401948,-0.7444394522237124
2019-03-04 20:51:15.785746,-8.30389201290115,-0.7492956418946157
2019-03-04 20:51:15.785833,-8.302425539782709,-0.7493437229804663
2019-03-04 20:51:15.785919,-8.302185134353456,-0.7467954254303883
2019-03-04 20:51:15.786004,-8.294924890390025,-0.7427806547618693
2019-03-04 20:51:15.786089,-8.296679850023569,-0.7490311959224378
2019-03-04 20:51:15.786175,-8.298579052914665,-0.7448721819963673
2019-03-04 20:51:15.786262,-8.296631768937718,-0.747949371490801
2019-03-04 20:51:15.786347,-8.297617431197654,-0.7505217095838042
2019-03-04 20:51:15.786433,-8.301896647838353,-0.7464348172865094
2019-03-04 20:51:15.786519,-8.302185134353456,-0.7549451694820527
2019-03-04 20:51:15.786605,-8.29545378233438,-0.7515314123866652
2019-03-04 20:51:15.786688,-8.292641038812125,-0.7479253309478757
2019-03-04 20:51:15.786895,-8.291847700895591,-0.7518679799876189
2019-03-04 20:51:15.786998,-8.295069133647576,-0.7468435065162389
2019-03-04 20:51:15.787085,-8.296896214909896,-0.7511708042427863
2019-03-04 20:51:15.787172,-8.296703890566494,-0.7520843448739463
2019-03-04 20:51:15.787259,-8.304012215615776,-0.7529738449621811
2019-03-04 20:51:15.787345,-8.299805120603855,-0.7538873855933411
2019-03-04 20:51:15.787430,-8.298122282599085,-0.7535027369065369
2019-03-04 20:51:15.787516,-8.292015984696068,-0.7499928176394484
2019-03-04 20:51:15.787603,-8.289491727688915,-0.752156466502722
2019-03-04 20:51:15.787688,-8.290309106148374,-0.7458338037133778
2019-03-04 20:51:15.855450,-8.293602660529135,-0.7478051282332494
2019-03-04 20:51:15.855652,-8.298266525856636,-0.7470839119454915
2019-03-04 20:51:15.855751,-8.301776445123727,-0.7496081689526441
2019-03-04 20:51:15.855843,-8.302305337068082,-0.7497524122101957
2019-03-04 20:51:15.855931,-8.302377458696858,-0.7533584936489853
2019-03-04 20:51:15.856017,-8.30079078286379,-0.7539354666791916
2019-03-04 20:51:15.856104,-8.293770944329612,-0.7552096154542306
2019-03-04 20:51:15.856191,-8.295045093104651,-0.7537912234216401
2019-03-04 20:51:15.856277,-8.296944295995747,-0.7551134532825295
2019-03-04 20:51:15.856363,-8.297785714998131,-0.7546807235098748
2019-03-04 20:51:15.856448,-8.298050160970309,-0.7573251832316538
2019-03-04 20:51:15.856533,-8.29768955282643,-0.756796291287298
2019-03-04 20:51:15.856618,-8.30201685055298,-0.7560510344566148
2019-03-04 20:51:15.856703,-8.29896370160147,-0.7558587101132127
2019-03-04 20:51:15.856788,-8.292064065781918,-0.7555702235981095
2019-03-04 20:51:15.856875,-8.292833363155527,-0.7552336559971559
2019-03-04 20:51:15.857011,-8.298795417800994,-0.7553298181688569
2019-03-04 20:51:15.857098,-8.295165295819277,-0.7554500208834832
2019-03-04 20:51:15.857184,-8.300502296348688,-0.7544883991664727
2019-03-04 20:51:15.857269,-8.298891579972695,-0.7547288045957253
2019-03-04 20:51:15.857354,-8.294756606589548,-0.7553778992547074
2019-03-04 20:51:15.857439,-8.299660877346303,-0.754151831565519
2019-03-04 20:51:15.993493,-8.29896370160147,-0.7554740614264085
2019-03-04 20:51:15.993738,-8.30028593146236,-0.755978912827839
2019-03-04 20:51:15.993849,-8.292280430668246,-0.7539114261362664
2019-03-04 20:51:15.993943,-8.291270727865385,-0.7546566829669495
2019-03-04 20:51:15.994031,-8.292112146867769,-0.7538873855933411
2019-03-04 20:51:15.994118,-8.292641038812125,-0.754055669393818
2019-03-04 20:51:15.994204,-8.29636732296554,-0.7541758721084443
2019-03-04 20:51:15.994290,-8.299300269202424,-0.7562914398858674
2019-03-04 20:51:15.994375,-8.296655809480644,-0.758166602234038
2019-03-04 20:51:15.994461,-8.296102876993363,-0.7579502373477106
2019-03-04 20:51:15.994547,-8.292520836097498,-0.7538152639645653
2019-03-04 20:51:15.994633,-8.300165728747734,-0.7556183046839601
2019-03-04 20:51:15.994857,-8.299564715174602,-0.7567722507443727
2019-03-04 20:51:15.994965,-8.294203674102267,-0.755522142512259
2019-03-04 20:51:15.995054,-8.299612796260453,-0.754512439709398
2019-03-04 20:51:15.995139,-8.299684917889229,-0.7554019397976327
2019-03-04 20:51:15.995224,-8.2993723908312,-0.7590080212364222
2019-03-04 20:51:15.995308,-8.299059863773172,-0.7587676158071696
2019-03-04 20:51:15.995393,-8.294876809304174,-0.7579261968047853
2019-03-04 20:51:15.995479,-8.294011349758865,-0.7557625479415117
2019-03-04 20:51:15.995564,-8.29408347138764,-0.7555461830551843
2019-03-04 20:51:15.995649,-8.29764147174058,-0.7563635615146432
2019-03-04 20:51:15.995734,-8.295838431021185,-0.7538393045074906
2019-03-04 20:51:15.995820,-8.295573985049007,-0.757805994090159
2019-03-04 20:51:15.995905,-8.298002079884458,-0.759633075352479
2019-03-04 20:51:15.995989,-8.299564715174602,-0.7591041834081232
2019-03-04 20:51:15.996075,-8.299612796260453,-0.7573732643175043
2019-03-04 20:51:15.996159,-8.29631924187969,-0.7538393045074906
2019-03-04 20:51:15.996243,-8.292833363155527,-0.7562193182570917
2019-03-04 20:51:15.996424,-8.295718228306558,-0.7544162775376969
2019-03-04 20:51:15.996559,-8.30247362086856,-0.7621092512737813
2019-03-04 20:51:16.063524,-8.29449216061737,-0.7630708729907918
2019-03-04 20:51:16.063688,-8.293290133471107,-0.7616524809582013
2019-03-04 20:51:16.063769,-8.292064065781918,-0.7630227919049413
2019-03-04 20:51:16.134454,-8.293891147044238,-0.7598494402388064
2019-03-04 20:51:16.134659,-8.294203674102267,-0.7604744943548634
2019-03-04 20:51:16.134758,-8.295525903963156,-0.7623736972459592
2019-03-04 20:51:16.134846,-8.302257255982232,-0.7625900621322865
2019-03-04 20:51:16.134933,-8.302088972181755,-0.7626141026752118
2019-03-04 20:51:16.135019,-8.297136620339149,-0.7674943328890402
2019-03-04 20:51:16.135105,-8.295381660705605,-0.7631910757054181
2019-03-04 20:51:16.135191,-8.295309539076829,-0.7623015756171834
2019-03-04 20:51:16.135278,-8.294564282246146,-0.7620130891020802
2019-03-04 20:51:16.135364,-8.293819025415463,-0.7612437917284718
2019-03-04 20:51:16.135450,-8.295670147220708,-0.7631910757054181
2019-03-04 20:51:16.135536,-8.297401066311327,-0.7615803593294255
2019-03-04 20:51:16.135622,-8.299925323318481,-0.7642488595941297
2019-03-04 20:51:16.135707,-8.301463918065698,-0.7692252519796593
2019-03-04 20:51:16.135793,-8.295333579619754,-0.7613159133572476
2019-03-04 20:51:16.202923,-8.292785282069676,-0.7638642109073255
2019-03-04 20:51:16.203127,-8.290405268320075,-0.7583348860345148
2019-03-04 20:51:16.203227,-8.296415404051391,-0.7599456024105075
2019-03-04 20:51:16.343719,-8.296247120250914,-0.7605466159836392
2019-03-04 20:51:16.343919,-8.295670147220708,-0.7622294539884076
2019-03-04 20:51:16.344018,-8.298290566399562,-0.7592484266656748
2019-03-04 20:51:16.344108,-8.302449580325634,-0.7619169269303792
2019-03-04 20:51:16.344196,-8.298242485313711,-0.7605706565265644
2019-03-04 20:51:16.344281,-8.297401066311327,-0.7660759408564497
2019-03-04 20:51:16.344368,-8.298579052914665,-0.7620611701879307
2019-03-04 20:51:16.344453,-8.299083904316097,-0.762902589190315
2019-03-04 20:51:16.344539,-8.298002079884458,-0.7597292375241801
2019-03-04 20:51:16.344625,-8.296679850023569,-0.7610514673850697
2019-03-04 20:51:16.344710,-8.298458850200038,-0.7637440081926992
2019-03-04 20:51:16.344795,-8.300935026121342,-0.7613159133572476
2019-03-04 20:51:16.344914,-8.30343524258557,-0.7651143191394392
2019-03-04 20:51:16.345008,-8.299973404404332,-0.7658355354271971
2019-03-04 20:51:16.345095,-8.297713593369355,-0.7619169269303792
2019-03-04 20:51:16.345180,-8.291511133294637,-0.7579021562618601
2019-03-04 20:51:16.345265,-8.28997253854742,-0.7595128726378527
2019-03-04 20:51:16.345352,-8.29449216061737,-0.7611235890138455
2019-03-04 20:51:16.345437,-8.299300269202424,-0.7637680487356244
2019-03-04 20:51:16.345522,-8.30535848601959,-0.7623977377888844
2019-03-04 20:51:16.345607,-8.306055661764423,-0.7609072241275181
2019-03-04 20:51:16.345692,-8.304012215615776,-0.7601379267539096
2019-03-04 20:51:16.345777,-8.299660877346303,-0.7613399539001728
2019-03-04 20:51:16.345862,-8.293410336185733,-0.7603062105543864
2019-03-04 20:51:16.345947,-8.289227281716737,-0.761532278243575
2019-03-04 20:51:16.346031,-8.29170345763804,-0.761724602586977
2019-03-04 20:51:16.346115,-8.291631336009264,-0.7606427781553402
2019-03-04 20:51:16.346200,-8.299925323318481,-0.7624698594176602
2019-03-04 20:51:16.346286,-8.301055228835969,-0.765186440768215
2019-03-04 20:51:16.483616,-8.306752837509256,-0.7693454546942856
2019-03-04 20:51:16.483817,-8.308820324200829,-0.767566454517816
2019-03-04 20:51:16.483915,-8.306824959138032,-0.7678309004899939
2019-03-04 20:51:16.484006,-8.306464350994153,-0.7659797786847486
2019-03-04 20:51:16.484092,-8.30521424276204,-0.7631429946195676
2019-03-04 20:51:16.484176,-8.306416269908302,-0.7604264132690127
2019-03-04 20:51:16.484262,-8.308796283657903,-0.7637680487356244
2019-03-04 20:51:16.484347,-8.310599324377298,-0.7663403868286276
2019-03-04 20:51:16.484432,-8.311416702836757,-0.7696820222952393
2019-03-04 20:51:16.484515,-8.31302741921275,-0.7662682651998518
2019-03-04 20:51:16.484731,-8.30987810808954,-0.7654508867403929
2019-03-04 20:51:16.484864,-8.303555445300196,-0.7653787651116171
2019-03-04 20:51:16.485050,-8.301896647838353,-0.7595128726378527
2019-03-04 20:51:16.485196,-8.300406134176987,-0.7620130891020802
2019-03-04 20:51:16.485342,-8.303290999328018,-0.7585272103779169
2019-03-04 20:51:16.485483,-8.29978108006093,-0.7593686293803011
2019-03-04 20:51:16.485628,-8.30069462069209,-0.756892453458999
2019-03-04 20:51:16.485784,-8.306103742850274,-0.7588156968930201
2019-03-04 20:51:16.485929,-8.307474053797014,-0.7616043998723507
2019-03-04 20:51:16.486074,-8.30708940511021,-0.7597292375241801
2019-03-04 20:51:16.486222,-8.297905917712757,-0.7592243861227496
2019-03-04 20:51:16.486373,-8.299564715174602,-0.761171670099696
2019-03-04 20:51:16.486526,-8.295886512107035,-0.7596090348095538
2019-03-04 20:51:16.486684,-8.29764147174058,-0.7614601566147992
2019-03-04 20:51:16.486840,-8.301031188293043,-0.7603783321831622
2019-03-04 20:51:16.486994,-8.305406567105441,-0.764272900137055
2019-03-04 20:51:16.487150,-8.305743134706395,-0.763455521677596
2019-03-04 20:51:16.487305,-8.304493026474281,-0.7607389403270413
2019-03-04 20:51:16.487462,-8.302377458696858,-0.762445818874735
2019-03-04 20:51:16.623671,-8.301848566752502,-0.7584791292920664
2019-03-04 20:51:16.623874,-8.305382526562516,-0.7573732643175043
2019-03-04 20:51:16.623974,-8.301896647838353,-0.7589358996076464
2019-03-04 20:51:16.624063,-8.303723729100673,-0.7599456024105075
2019-03-04 20:51:16.624150,-8.301415836979848,-0.7606668186982655
2019-03-04 20:51:16.624236,-8.305863337421021,-0.7622534945313328
2019-03-04 20:51:16.624322,-8.308195270084772,-0.7628304675615392
2019-03-04 20:51:16.624407,-8.30749809433994,-0.7651143191394392
2019-03-04 20:51:16.624493,-8.29860309345759,-0.7607389403270413
2019-03-04 20:51:16.624579,-8.298579052914665,-0.7600658051251338
2019-03-04 20:51:16.624664,-8.300886945035492,-0.7625660215893613
2019-03-04 20:51:16.624750,-8.303916053444075,-0.7592965077515254
2019-03-04 20:51:16.624836,-8.302137053267606,-0.760450453811938
2019-03-04 20:51:16.624977,-8.306344148279527,-0.7601379267539096
2019-03-04 20:51:16.625096,-8.306704756423406,-0.7627823864756886
2019-03-04 20:51:16.625186,-8.308267391713548,-0.7624217783318097
2019-03-04 20:51:16.625272,-8.303290999328018,-0.7602100483826854
2019-03-04 20:51:16.625358,-8.297833796083982,-0.7642248190512044
2019-03-04 20:51:16.625444,-8.303266958785093,-0.7618688458445286
2019-03-04 20:51:16.625529,-8.300021485490182,-0.7625179405035107
2019-03-04 20:51:16.625615,-8.300502296348688,-0.7610755079279949
2019-03-04 20:51:16.625700,-8.304925756246936,-0.7649700758818876
2019-03-04 20:51:16.625785,-8.305286364390815,-0.7657874543413465
2019-03-04 20:51:16.625871,-8.307522134882865,-0.7662201841140013
2019-03-04 20:51:16.625956,-8.309685783746138,-0.7631429946195676
2019-03-04 20:51:16.626040,-8.30206493163883,-0.7629506702761655
2019-03-04 20:51:16.626125,-8.299973404404332,-0.7616524809582013
2019-03-04 20:51:16.626209,-8.302377458696858,-0.758262764405739
2019-03-04 20:51:16.626294,-8.296679850023569,-0.758166602234038
2019-03-04 20:51:16.626378,-8.304973837332787,-0.7673020085456381
2019-03-04 20:51:16.693478,-8.307065364567285,-0.7653066434828413
2019-03-04 20:51:16.693680,-8.30398817507285,-0.770018589896193
2019-03-04 20:51:16.693779,-8.302665945211961,-0.7690810087221077
2019-03-04 20:51:16.693870,-8.299059863773172,-0.7671577652880865
2019-03-04 20:51:16.764295,-8.299853201689706,-0.7664125084574034
2019-03-04 20:51:16.764500,-8.300093607118958,-0.767470292346115
2019-03-04 20:51:16.764599,-8.300766742320866,-0.769201211436734
2019-03-04 20:51:16.764690,-8.3016562424091,-0.7688646438357803
2019-03-04 20:51:16.764778,-8.30658455370878,-0.7673981707173392
2019-03-04 20:51:16.764865,-8.310911851435327,-0.7683597924343498
2019-03-04 20:51:16.764996,-8.306656675337555,-0.7703551574971467
2019-03-04 20:51:16.765084,-8.301992810010054,-0.768287670805574
2019-03-04 20:51:16.765301,-8.30353140475727,-0.7666288733437308
2019-03-04 20:51:16.765439,-8.302641904669036,-0.7669173598588339
2019-03-04 20:51:16.765585,-8.30028593146236,-0.7663884679144781
2019-03-04 20:51:16.765730,-8.299708958432154,-0.7674222112602644
2019-03-04 20:51:16.765873,-8.300766742320866,-0.7709561710702783
2019-03-04 20:51:16.766015,-8.309060729630081,-0.769105049265033
2019-03-04 20:51:16.766165,-8.306776878052181,-0.7717014279009614
2019-03-04 20:51:16.832963,-8.300910985578417,-0.7704032385829972
2019-03-04 20:51:16.833170,-8.296896214909896,-0.7661240219423002
2019-03-04 20:51:16.833271,-8.299684917889229,-0.7688646438357803
2019-03-04 20:51:16.903586,-8.299131985401948,-0.7675904950607413
2019-03-04 20:51:16.903792,-8.298242485313711,-0.7640324947078023
2019-03-04 20:51:16.903891,-8.301415836979848,-0.7706196034693246
2019-03-04 20:51:16.903981,-8.30531040493374,-0.7715571846434098
2019-03-04 20:51:16.904069,-8.305094040047413,-0.7701868736966698
2019-03-04 20:51:16.904157,-8.313315905727853,-0.7701868736966698
2019-03-04 20:51:16.904243,-8.304517067017207,-0.7704272791259225
2019-03-04 20:51:16.904330,-8.302810188469513,-0.7670375625734602
2019-03-04 20:51:16.904416,-8.299805120603855,-0.7670616031163855
2019-03-04 20:51:16.904501,-8.302137053267606,-0.7669894814876097
2019-03-04 20:51:17.044536,-8.301752404580801,-0.7656672516267202
2019-03-04 20:51:17.044740,-8.30343524258557,-0.7656191705408697
2019-03-04 20:51:17.044839,-8.307353851082388,-0.7668452382300581
2019-03-04 20:51:17.045019,-8.307738499769192,-0.7676626166895171
2019-03-04 20:51:17.045116,-8.3062239455649,-0.7658595759701223
2019-03-04 20:51:17.045205,-8.308627999857427,-0.7652585623969907
2019-03-04 20:51:17.045292,-8.30535848601959,-0.7678789815758444
2019-03-04 20:51:17.045378,-8.303146756070467,-0.7660519003135244
2019-03-04 20:51:17.045464,-8.300598458520389,-0.7660519003135244
2019-03-04 20:51:17.045551,-8.30211301272468,-0.7659076570559729
2019-03-04 20:51:17.045637,-8.302401499239783,-0.7666288733437308
2019-03-04 20:51:17.045724,-8.30658455370878,-0.7658836165130476
2019-03-04 20:51:17.045809,-8.309757905374914,-0.7660519003135244
2019-03-04 20:51:17.045895,-8.311272459579206,-0.7667009949725065
2019-03-04 20:51:17.045982,-8.307257688910687,-0.7634795622205213
2019-03-04 20:51:17.046067,-8.303339080413869,-0.7641286568795034
2019-03-04 20:51:17.046153,-8.29982916114678,-0.7665807922578802
2019-03-04 20:51:17.046238,-8.298410769114188,-0.7681915086338729
2019-03-04 20:51:17.046324,-8.303819891272374,-0.7684319140631256
2019-03-04 20:51:17.046410,-8.303867972358224,-0.7665807922578802
2019-03-04 20:51:17.046496,-8.305190202219114,-0.766556751714955
2019-03-04 20:51:17.046582,-8.309180932344708,-0.7641526974224286
2019-03-04 20:51:17.046666,-8.309661743203213,-0.7678068599470687
2019-03-04 20:51:17.046752,-8.305743134706395,-0.7672779680027129
2019-03-04 20:51:17.046838,-8.302906350641214,-0.7672779680027129
2019-03-04 20:51:17.046923,-8.298843498886844,-0.767109684202236
2019-03-04 20:51:17.047008,-8.30115139100767,-0.7643450217658307
2019-03-04 20:51:17.047095,-8.304252621045029,-0.7675183734319655
2019-03-04 20:51:17.047181,-8.302954431727064,-0.767470292346115
2019-03-04 20:51:17.047267,-8.307017283481434,-0.7698262655527909
2019-03-04 20:51:17.047354,-8.304493026474281,-0.7692252519796593
2019-03-04 20:51:17.047439,-8.30795486465552,-0.7694656574089119
2019-03-04 20:51:17.047524,-8.30124755317937,-0.7670375625734602
2019-03-04 20:51:17.047610,-8.29814632314201,-0.7673500896314887
2019-03-04 20:51:17.047696,-8.294828728218324,-0.7677587788612181
2019-03-04 20:51:17.047782,-8.298170363684935,-0.7632631973341939
2019-03-04 20:51:17.184560,-8.301584120780324,-0.7689127249216309
2019-03-04 20:51:17.184765,-8.308363553885249,-0.7734563875345056
2019-03-04 20:51:17.184864,-8.303627566928972,-0.7711484954136804
2019-03-04 20:51:17.185005,-8.29627116079384,-0.7736967929637583
2019-03-04 20:51:17.185096,-8.297328944682551,-0.7677347383182929
2019-03-04 20:51:17.185183,-8.298891579972695,-0.7680713059192465
2019-03-04 20:51:17.185372,-8.303555445300196,-0.7662682651998518
2019-03-04 20:51:17.185501,-8.30201685055298,-0.7654028056545423
2019-03-04 20:51:17.185617,-8.303170796613392,-0.7644171433946065
2019-03-04 20:51:17.185707,-8.30749809433994,-0.7626141026752118
2019-03-04 20:51:17.185793,-8.310503162205597,-0.7698022250098656
2019-03-04 20:51:17.185880,-8.312258121839141,-0.767013522030535
2019-03-04 20:51:17.185966,-8.309589621574437,-0.7670375625734602
2019-03-04 20:51:17.186051,-8.300983107207193,-0.7651143191394392
2019-03-04 20:51:17.186137,-8.30444494538843,-0.7670616031163855
2019-03-04 20:51:17.186222,-8.304877675161086,-0.7650181569677381
2019-03-04 20:51:17.186307,-8.30627202665075,-0.7667009949725065
2019-03-04 20:51:17.186393,-8.305238283304964,-0.761532278243575
2019-03-04 20:51:17.186479,-8.307786580855042,-0.7643209812229055
2019-03-04 20:51:17.186564,-8.298362688028337,-0.7657634137984213
2019-03-04 20:51:17.186649,-8.299853201689706,-0.7641526974224286
2019-03-04 20:51:17.186735,-8.299853201689706,-0.7642969406799802
2019-03-04 20:51:17.186821,-8.30490171570401,-0.7654989678262434
2019-03-04 20:51:17.186906,-8.305430607648367,-0.7637440081926992
2019-03-04 20:51:17.186991,-8.306007580678573,-0.7653787651116171
2019-03-04 20:51:17.187076,-8.306344148279527,-0.764825832624336
2019-03-04 20:51:17.187161,-8.303579485843121,-0.7669414004017592
2019-03-04 20:51:17.187246,-8.303555445300196,-0.7602581294685359
2019-03-04 20:51:17.187332,-8.304493026474281,-0.7615082377006497
2019-03-04 20:51:17.187419,-8.30119947209352,-0.760714899784116
2019-03-04 20:51:17.187505,-8.300502296348688,-0.7614361160718739
2019-03-04 20:51:17.187591,-8.3015600802374,-0.7616043998723507
2019-03-04 20:51:17.187676,-8.302810188469513,-0.7618448053016034
2019-03-04 20:51:17.187762,-8.306392229365377,-0.7669894814876097
2019-03-04 20:51:17.187870,-8.305863337421021,-0.7660759408564497
2019-03-04 20:51:17.187967,-8.302689985754887,-0.7635036027634465
2019-03-04 20:51:17.253585,-8.301848566752502,-0.7627343053898381
2019-03-04 20:51:17.253771,-8.300526336891613,-0.7622534945313328
2019-03-04 20:51:17.253860,-8.30302655335584,-0.7633353189629697
2019-03-04 20:51:17.253940,-8.300382093634061,-0.7638642109073255
2019-03-04 20:51:17.254018,-8.306897080766808,-0.7665807922578802
2019-03-04 20:51:17.254094,-8.306464350994153,-0.7636478460209981
2019-03-04 20:51:17.323496,-8.305406567105441,-0.7647537109955602
2019-03-04 20:51:17.323701,-8.304420904845506,-0.7646575488238592
2019-03-04 20:51:17.323801,-8.297401066311327,-0.7648979542531118
2019-03-04 20:51:17.323892,-8.300309972005286,-0.760811061955817
2019-03-04 20:51:17.394471,-8.301872607295428,-0.7596571158954043
2019-03-04 20:51:17.394671,-8.295069133647576,-0.7623736972459592
2019-03-04 20:51:17.394772,-8.301944728924203,-0.766556751714955
2019-03-04 20:51:17.394864,-8.305695053620544,-0.763912291993176
2019-03-04 20:51:17.394951,-8.305983540135648,-0.7663163462857023
2019-03-04 20:51:17.395037,-8.304565148103057,-0.7622054134454823
2019-03-04 20:51:17.395123,-8.300430174719912,-0.7606187376124149
2019-03-04 20:51:17.395209,-8.301944728924203,-0.7634074405917455
2019-03-04 20:51:17.395295,-8.305695053620544,-0.7627102648469128
2019-03-04 20:51:17.395381,-8.30170432349495,-0.7615082377006497
2019-03-04 20:51:17.395468,-8.302040891095904,-0.7664846300861792
2019-03-04 20:51:17.395555,-8.305863337421021,-0.764272900137055
2019-03-04 20:51:17.395642,-8.302497661411484,-0.7636718865639234
2019-03-04 20:51:17.395728,-8.303627566928972,-0.7651383596823644
2019-03-04 20:51:17.395814,-8.303819891272374,-0.7648979542531118
2019-03-04 20:51:17.463012,-8.299252188116574,-0.7662201841140013
2019-03-04 20:51:17.463215,-8.30398817507285,-0.7675183734319655
2019-03-04 20:51:17.463314,-8.304973837332787,-0.7655710894550192
2019-03-04 20:51:17.533581,-8.306392229365377,-0.7639844136219518
2019-03-04 20:51:17.533786,-8.301415836979848,-0.7651383596823644
2019-03-04 20:51:17.533885,-8.303339080413869,-0.7647777515384855
2019-03-04 20:51:17.534144,-8.305695053620544,-0.7661480624852255
2019-03-04 20:51:17.534277,-8.303795850729449,-0.7646094677380086
2019-03-04 20:51:17.534423,-8.298122282599085,-0.7597773186100306
2019-03-04 20:51:17.534571,-8.299805120603855,-0.7622054134454823
2019-03-04 20:51:17.534718,-8.306897080766808,-0.7677828194041434
2019-03-04 20:51:17.534859,-8.314205405816088,-0.7699224277244919
2019-03-04 20:51:17.535012,-8.31394095984391,-0.7720860765877656
2019-03-04 20:51:17.675308,-8.313267824642002,-0.7744420497944414
2019-03-04 20:51:17.675512,-8.307666378140416,-0.7662201841140013
2019-03-04 20:51:17.675612,-8.306416269908302,-0.7697060628381646
2019-03-04 20:51:17.675701,-8.310022351347092,-0.7659076570559729
2019-03-04 20:51:17.675788,-8.309589621574437,-0.766652913886656
2019-03-04 20:51:17.675875,-8.307233648367761,-0.7672779680027129
2019-03-04 20:51:17.675961,-8.309709824289063,-0.7671577652880865
2019-03-04 20:51:17.676047,-8.310118513518793,-0.7650662380535886
2019-03-04 20:51:17.676134,-8.307906783569669,-0.7676385761465918
2019-03-04 20:51:17.676220,-8.307474053797014,-0.7654268461974676
2019-03-04 20:51:17.676305,-8.303002512812915,-0.7635516838492971
2019-03-04 20:51:17.676391,-8.299396431374126,-0.7609793457562939
2019-03-04 20:51:17.676476,-8.30348332367142,-0.7626621837610623
2019-03-04 20:51:17.676561,-8.304180499416253,-0.7632631973341939
2019-03-04 20:51:17.676646,-8.307978905198445,-0.7639844136219518
2019-03-04 20:51:17.676732,-8.313363986813703,-0.7616524809582013
2019-03-04 20:51:17.676818,-8.310983973064102,-0.7664605895432539
2019-03-04 20:51:17.676949,-8.309397297231035,-0.7637199676497739
2019-03-04 20:51:17.677044,-8.304733431903534,-0.7669894814876097
2019-03-04 20:51:17.677131,-8.307305769996537,-0.7636959271068486
2019-03-04 20:51:17.677217,-8.301031188293043,-0.7636959271068486
2019-03-04 20:51:17.677303,-8.300598458520389,-0.7626621837610623
2019-03-04 20:51:17.814462,-8.305406567105441,-0.764825832624336
2019-03-04 20:51:17.814667,-8.303411202042644,-0.7689127249216309
2019-03-04 20:51:17.814767,-8.302425539782709,-0.7672539274597876
2019-03-04 20:51:17.814858,-8.308652040400352,-0.7698503060957161
2019-03-04 20:51:17.814946,-8.312378324553768,-0.7702349547825204
2019-03-04 20:51:17.815034,-8.313676513871732,-0.7716773873580361
2019-03-04 20:51:17.815121,-8.30343524258557,-0.7677587788612181
2019-03-04 20:51:17.815207,-8.304060296701627,-0.7665807922578802
2019-03-04 20:51:17.815293,-8.302425539782709,-0.7657874543413465
2019-03-04 20:51:17.815379,-8.301968769467129,-0.7660038192276739
2019-03-04 20:51:17.815464,-8.304949796789861,-0.7693454546942856
2019-03-04 20:51:17.815549,-8.310046391890017,-0.767109684202236
2019-03-04 20:51:17.815635,-8.315575716762828,-0.7652104813111402
2019-03-04 20:51:17.815720,-8.311849432609412,-0.7711484954136804
2019-03-04 20:51:17.815805,-8.303050593898766,-0.7663884679144781
2019-03-04 20:51:17.815891,-8.302665945211961,-0.7668211976871329
2019-03-04 20:51:17.815977,-8.30307463444169,-0.7655710894550192
2019-03-04 20:51:17.816062,-8.30338716149972,-0.7632151162483434
2019-03-04 20:51:17.816148,-8.30170432349495,-0.7643209812229055
2019-03-04 20:51:17.816234,-8.309637702660288,-0.7641767379653539
2019-03-04 20:51:17.816321,-8.311176297407505,-0.7675424139748908
2019-03-04 20:51:17.816406,-8.30521424276204,-0.7673741301744139
2019-03-04 20:51:17.816490,-8.302329377611008,-0.7650181569677381
2019-03-04 20:51:17.816576,-8.302377458696858,-0.7657153327125708
2019-03-04 20:51:17.816661,-8.302377458696858,-0.7653066434828413
2019-03-04 20:51:17.816746,-8.301223512636446,-0.7654989678262434
2019-03-04 20:51:17.816831,-8.298482890742964,-0.7677347383182929
2019-03-04 20:51:17.816960,-8.30713748619606,-0.7661480624852255
2019-03-04 20:51:17.817052,-8.307978905198445,-0.7636959271068486
2019-03-04 20:51:17.817140,-8.306752837509256,-0.7689127249216309
2019-03-04 20:51:17.817226,-8.304613229188908,-0.7679751437475455
2019-03-04 20:51:17.817313,-8.305911418506872,-0.7663884679144781
2019-03-04 20:51:17.817523,-8.301776445123727,-0.7643931028516813
2019-03-04 20:51:17.817634,-8.298627134000515,-0.7625900621322865
2019-03-04 20:51:17.817777,-8.302545742497335,-0.7636959271068486
2019-03-04 20:51:17.817927,-8.298530971828814,-0.7623977377888844
2019-03-04 20:51:17.883584,-8.303098674984616,-0.7646575488238592
2019-03-04 20:51:17.883787,-8.308652040400352,-0.7631670351624928
2019-03-04 20:51:17.883885,-8.30978194591784,-0.7636478460209981
2019-03-04 20:51:17.883976,-8.30809910791307,-0.7669173598588339
2019-03-04 20:51:17.884062,-8.304468985931356,-0.7667971571442076
2019-03-04 20:51:17.884148,-8.30261786412611,-0.7616524809582013
2019-03-04 20:51:17.884234,-8.302689985754887,-0.7655470489120939
2019-03-04 20:51:17.884321,-8.306416269908302,-0.7648979542531118
2019-03-04 20:51:17.954516,-8.30307463444169,-0.7567241696585222
2019-03-04 20:51:17.954720,-8.29672793110942,-0.7536229396211632
2019-03-04 20:51:17.954819,-8.303146756070467,-0.7586474130925432
2019-03-04 20:51:17.954910,-8.30201685055298,-0.7597292375241801
2019-03-04 20:51:17.954997,-8.303603526386047,-0.7580944806052622
2019-03-04 20:51:17.955084,-8.305118080590338,-0.7599456024105075
2019-03-04 20:51:17.955170,-8.309108810715932,-0.7583348860345148
2019-03-04 20:51:17.955257,-8.310983973064102,-0.7583348860345148
2019-03-04 20:51:17.955343,-8.306945161852658,-0.7603062105543864
2019-03-04 20:51:17.955429,-8.306656675337555,-0.7573011426887285
2019-03-04 20:51:17.955515,-8.306320107736601,-0.7550172911108285
2019-03-04 20:51:17.955599,-8.308531837685726,-0.7558346695702874
2019-03-04 20:51:17.955685,-8.3062239455649,-0.7548490073103516
2019-03-04 20:51:17.955770,-8.305142121133263,-0.7572049805170274
2019-03-04 20:51:17.955857,-8.304781512989384,-0.7594888320949275
2019-03-04 20:51:17.955943,-8.308940526915455,-0.7605706565265644
2019-03-04 20:51:17.956028,-8.305454648191292,-0.7607870214128918
2019-03-04 20:51:18.024447,-8.30531040493374,-0.756339520971718
2019-03-04 20:51:18.024651,-8.298987742144396,-0.7560991155424653
2019-03-04 20:51:18.024752,-8.30028593146236,-0.7580704400623369
2019-03-04 20:51:18.024841,-8.303627566928972,-0.7585272103779169
2019-03-04 20:51:18.024967,-8.30023785037651,-0.7588156968930201
2019-03-04 20:51:18.025059,-8.304541107560132,-0.7564116426004938
2019-03-04 20:51:18.025145,-8.310863770349476,-0.760450453811938
2019-03-04 20:51:18.025232,-8.312282162382067,-0.761724602586977
2019-03-04 20:51:18.025318,-8.306103742850274,-0.7565318453151201
2019-03-04 20:51:18.025404,-8.297905917712757,-0.7558346695702874
2019-03-04 20:51:18.025490,-8.303940093987,-0.753695061249939
2019-03-04 20:51:18.025575,-8.307858702483818,-0.7565799264009706
2019-03-04 20:51:18.025661,-8.30946941885981,-0.7528055611617043
2019-03-04 20:51:18.025746,-8.307978905198445,-0.7550413316537538
2019-03-04 20:51:18.025831,-8.303218877699242,-0.7568203318302232
2019-03-04 20:51:18.093032,-8.301127350464744,-0.7590561023222727
2019-03-04 20:51:18.093237,-8.305094040047413,-0.7601860078397601
2019-03-04 20:51:18.093338,-8.305094040047413,-0.7603783321831622
2019-03-04 20:51:18.163541,-8.304685350817683,-0.7566039669438959
2019-03-04 20:51:18.163784,-8.305502729277142,-0.7539354666791916
2019-03-04 20:51:18.163940,-8.303339080413869,-0.7565799264009706
2019-03-04 20:51:18.164099,-8.302209174896381,-0.7564116426004938
2019-03-04 20:51:18.164257,-8.302665945211961,-0.7562914398858674
2019-03-04 20:51:18.164412,-8.307834661940893,-0.7617726836728276
2019-03-04 20:51:18.164563,-8.308748202572053,-0.7648979542531118
2019-03-04 20:51:18.164700,-8.304228580502103,-0.7606187376124149
2019-03-04 20:51:18.164797,-8.303747769643598,-0.7583829671203653
2019-03-04 20:51:18.235356,-8.302810188469513,-0.7569405345448496
2019-03-04 20:51:18.235560,-8.302545742497335,-0.7556423452268853
2019-03-04 20:51:18.235658,-8.31403712201561,-0.7559548722849138
2019-03-04 20:51:18.235749,-8.310190635147569,-0.7573732643175043
2019-03-04 20:51:18.235837,-8.30845971605695,-0.7587435752642443
2019-03-04 20:51:18.235923,-8.311392662293832,-0.7535267774494622
2019-03-04 20:51:18.236154,-8.308026986284295,-0.7548009262245011
2019-03-04 20:51:18.236267,-8.308435675514025,-0.7560029533707643
2019-03-04 20:51:18.236358,-8.308315472799398,-0.7534546558206864
2019-03-04 20:51:18.236432,-8.311560946094309,-0.7561952777141664
2019-03-04 20:51:18.236506,-8.31120033795043,-0.7579502373477106
2019-03-04 20:51:18.236579,-8.310623364920223,-0.7605466159836392
2019-03-04 20:51:18.236649,-8.308219310627697,-0.7557865884844369
2019-03-04 20:51:18.236725,-8.308315472799398,-0.7550413316537538
2019-03-04 20:51:18.236801,-8.309902148632466,-0.7564837642292696
2019-03-04 20:51:18.236874,-8.309084770173007,-0.7544883991664727
2019-03-04 20:51:18.237016,-8.308652040400352,-0.7560029533707643
2019-03-04 20:51:18.237139,-8.308579918771576,-0.7567001291155969
2019-03-04 20:51:18.237264,-8.314061162558536,-0.7588878185217959
2019-03-04 20:51:18.237389,-8.312546608354245,-0.757805994090159
2019-03-04 20:51:18.237513,-8.312835094869348,-0.7540075883079674
2019-03-04 20:51:18.237642,-8.307257688910687,-0.7524209124749
2019-03-04 20:51:18.374492,-8.308483756599875,-0.7540075883079674
2019-03-04 20:51:18.374696,-8.304733431903534,-0.7577338724613832
2019-03-04 20:51:18.374798,-8.305190202219114,-0.7521083854168715
2019-03-04 20:51:18.374889,-8.306320107736601,-0.7529978855051064
2019-03-04 20:51:18.374978,-8.310695486549,-0.7580704400623369
2019-03-04 20:51:18.375066,-8.317979771055354,-0.7578540751760096
2019-03-04 20:51:18.375155,-8.312282162382067,-0.7578300346330843
2019-03-04 20:51:18.375241,-8.306921121309733,-0.7560029533707643
2019-03-04 20:51:18.375327,-8.307906783569669,-0.758719534721319
2019-03-04 20:51:18.375413,-8.303459283128495,-0.7589358996076464
2019-03-04 20:51:18.375498,-8.307474053797014,-0.760089845668059
2019-03-04 20:51:18.375584,-8.311032054149953,-0.7631429946195676
2019-03-04 20:51:18.375669,-8.309229013430558,-0.7597292375241801
2019-03-04 20:51:18.375755,-8.31074356763485,-0.7594888320949275
2019-03-04 20:51:18.375840,-8.306392229365377,-0.7581906427769632
2019-03-04 20:51:18.375925,-8.308267391713548,-0.760089845668059
2019-03-04 20:51:18.376011,-8.305911418506872,-0.7597051969812548
2019-03-04 20:51:18.376097,-8.304204539959178,-0.7557144668556611
2019-03-04 20:51:18.376182,-8.307233648367761,-0.7583348860345148
2019-03-04 20:51:18.376267,-8.309517499945661,-0.7614841971577244
2019-03-04 20:51:18.376353,-8.30800294574137,-0.758623372549618
2019-03-04 20:51:18.376438,-8.307401932168238,-0.7592484266656748
2019-03-04 20:51:18.376523,-8.309084770173007,-0.7606187376124149
2019-03-04 20:51:18.376607,-8.303050593898766,-0.7566280074868211
2019-03-04 20:51:18.376693,-8.304036256158701,-0.7550172911108285
2019-03-04 20:51:18.376778,-8.303459283128495,-0.758166602234038
2019-03-04 20:51:18.376863,-8.304589188645982,-0.7567001291155969
2019-03-04 20:51:18.376992,-8.305238283304964,-0.7601379267539096
2019-03-04 20:51:18.377080,-8.312450446182543,-0.759176305036899
2019-03-04 20:51:18.377166,-8.316369054679361,-0.7591282239510485
2019-03-04 20:51:18.377252,-8.314878541017995,-0.7578300346330843
2019-03-04 20:51:18.377339,-8.30353140475727,-0.7563154804287927
2019-03-04 20:51:18.377424,-8.304613229188908,-0.7528776827904801
2019-03-04 20:51:18.377510,-8.304372823759655,-0.7523247503031989
2019-03-04 20:51:18.377596,-8.307570215968715,-0.7556663857698106
2019-03-04 20:51:18.377682,-8.305743134706395,-0.7603062105543864
2019-03-04 20:51:18.513420,-8.303579485843121,-0.7602821700114611
2019-03-04 20:51:18.513623,-8.313604392242956,-0.7613639944430981
2019-03-04 20:51:18.513724,-8.31485450047507,-0.7599456024105075
2019-03-04 20:51:18.513816,-8.311681148808935,-0.7598975213246569
2019-03-04 20:51:18.513903,-8.30567101307762,-0.755978912827839
2019-03-04 20:51:18.513988,-8.301343715351072,-0.7547288045957253
2019-03-04 20:51:18.514074,-8.302714026297812,-0.7549211289391274
2019-03-04 20:51:18.514160,-8.304468985931356,-0.7573011426887285
2019-03-04 20:51:18.514246,-8.306416269908302,-0.757253061602878
2019-03-04 20:51:18.514465,-8.30475747244646,-0.7537912234216401
2019-03-04 20:51:18.514604,-8.310262756776345,-0.755425980340558
2019-03-04 20:51:18.514705,-8.307065364567285,-0.7566760885726717
2019-03-04 20:51:18.514791,-8.303146756070467,-0.755425980340558
2019-03-04 20:51:18.514877,-8.30485363461816,-0.7562193182570917
2019-03-04 20:51:18.514962,-8.305382526562516,-0.7575655886609064
2019-03-04 20:51:18.515048,-8.306536472622929,-0.7548009262245011
2019-03-04 20:51:18.515134,-8.304613229188908,-0.7580463995194117
2019-03-04 20:51:18.515220,-8.308820324200829,-0.7570607372594759
2019-03-04 20:51:18.515306,-8.308315472799398,-0.756892453458999
2019-03-04 20:51:18.515391,-8.30795486465552,-0.761267832271397
2019-03-04 20:51:18.515476,-8.304589188645982,-0.7619409674733044
2019-03-04 20:51:18.515561,-8.304108377787477,-0.7592965077515254
2019-03-04 20:51:18.515647,-8.304420904845506,-0.7571809399741022
2019-03-04 20:51:18.515734,-8.305646972534694,-0.7592003455798243
2019-03-04 20:51:18.515820,-8.305839296878096,-0.7561231560853906
2019-03-04 20:51:18.583790,-8.303916053444075,-0.7539835477650422
2019-03-04 20:51:18.583991,-8.307834661940893,-0.759536913180778
2019-03-04 20:51:18.584089,-8.30978194591784,-0.7594888320949275
2019-03-04 20:51:18.584179,-8.310647405463149,-0.7614120755289486
2019-03-04 20:51:18.584268,-8.306151823936125,-0.7565318453151201
2019-03-04 20:51:18.584354,-8.303411202042644,-0.7542720342801453
2019-03-04 20:51:18.584440,-8.30256978304026,-0.7550894127396043
2019-03-04 20:51:18.584526,-8.303867972358224,-0.7556423452268853
2019-03-04 20:51:18.584614,-8.305622931991769,-0.7569645750877748
2019-03-04 20:51:18.584699,-8.305190202219114,-0.7600417645822085
2019-03-04 20:51:18.584786,-8.307377891625313,-0.7575896292038317
2019-03-04 20:51:18.584873,-8.308892445829605,-0.759080142865198
2019-03-04 20:51:18.653490,-8.302786147926588,-0.7576617508326075
2019-03-04 20:51:18.653693,-8.306752837509256,-0.7577338724613832
2019-03-04 20:51:18.653794,-8.30759425651164,-0.7604264132690127
2019-03-04 20:51:18.653884,-8.310070432432942,-0.756339520971718
2019-03-04 20:51:18.653971,-8.310959932521177,-0.7599456024105075
2019-03-04 20:51:18.654057,-8.306921121309733,-0.7591041834081232
2019-03-04 20:51:18.723619,-8.305622931991769,-0.7574453859462801
2019-03-04 20:51:18.723820,-8.30439686430258,-0.758166602234038
2019-03-04 20:51:18.723920,-8.29764147174058,-0.7566760885726717
2019-03-04 20:51:18.724009,-8.29987724223263,-0.7561231560853906
2019-03-04 20:51:18.724095,-8.299757039518004,-0.759536913180778
2019-03-04 20:51:18.724182,-8.307786580855042,-0.7577338724613832
2019-03-04 20:51:18.724270,-8.30526232384789,-0.7597051969812548
2019-03-04 20:51:18.724357,-8.305743134706395,-0.7575415481179811
2019-03-04 20:51:18.724443,-8.30261786412611,-0.7599215618675822
2019-03-04 20:51:18.794457,-8.301391796436922,-0.7607870214128918
2019-03-04 20:51:18.794660,-8.299708958432154,-0.7553298181688569
2019-03-04 20:51:18.794795,-8.301007147750118,-0.7543681964518464
2019-03-04 20:51:18.794926,-8.30663263479463,-0.758623372549618
2019-03-04 20:51:18.795047,-8.30617586447905,-0.7590320617793475
2019-03-04 20:51:18.795166,-8.309709824289063,-0.7582868049486643
2019-03-04 20:51:18.795258,-8.311897513695262,-0.7622294539884076
2019-03-04 20:51:18.795346,-8.308315472799398,-0.7606668186982655
2019-03-04 20:51:18.795432,-8.30571909416347,-0.7570847778024011
2019-03-04 20:51:18.795518,-8.302449580325634,-0.7573732643175043
2019-03-04 20:51:18.795604,-8.299348350288275,-0.7545364802523232
2019-03-04 20:51:18.795690,-8.304949796789861,-0.7603062105543864
2019-03-04 20:51:18.795777,-8.30110330992182,-0.760089845668059
2019-03-04 20:51:18.795862,-8.30521424276204,-0.7615803593294255
2019-03-04 20:51:18.795948,-8.307882743026743,-0.762902589190315
2019-03-04 20:51:18.796033,-8.308243351170622,-0.7616765215011265
2019-03-04 20:51:18.796119,-8.306464350994153,-0.7592484266656748
2019-03-04 20:51:19.006923,-8.300862904492567,-0.7561231560853906
2019-03-04 20:51:19.007124,-8.31627289250766,-0.7420113573882609
2019-03-04 20:51:19.007356,-8.311681148808935,-0.738188911063144
2019-03-04 20:51:19.007505,-8.31394095984391,-0.738188911063144
2019-03-04 20:51:19.007604,-8.318412500828009,-0.7433095467062251
2019-03-04 20:51:19.007692,-8.32129736597904,-0.7396794247245103
2019-03-04 20:51:19.007779,-8.321946460638022,-0.7379725461768166
2019-03-04 20:51:19.007865,-8.31987897394645,-0.7391264922372293
2019-03-04 20:51:19.007952,-8.323509095928165,-0.7442711684232356
2019-03-04 20:51:19.008038,-8.317498960196849,-0.736554154144226
2019-03-04 20:51:19.008123,-8.318845230600663,-0.741386303272204
2019-03-04 20:51:19.008208,-8.32129736597904,-0.7368666812022544
2019-03-04 20:51:19.008294,-8.321778176837546,-0.7351598026545607
2019-03-04 20:51:19.008380,-8.324134150044221,-0.7358329378564681
2019-03-04 20:51:19.008464,-8.317835527797802,-0.7336212079073439
2019-03-04 20:51:19.008549,-8.324422636559325,-0.7358810189423186
2019-03-04 20:51:19.008634,-8.320504028062507,-0.7344866674526533
2019-03-04 20:51:19.008720,-8.31805189268413,-0.7366262757730018
2019-03-04 20:51:19.008806,-8.316441176308137,-0.7368666812022544
2019-03-04 20:51:19.008947,-8.31586420327793,-0.7362656676291228
2019-03-04 20:51:19.009108,-8.318196135941681,-0.7349674783111586
2019-03-04 20:51:19.009233,-8.31718643313882,-0.7362656676291228
2019-03-04 20:51:19.009335,-8.318845230600663,-0.7368907217451797
2019-03-04 20:51:19.009440,-8.320864636206386,-0.7406650869844461
2019-03-04 20:51:19.009523,-8.3198308928606,-0.739655384181585
2019-03-04 20:51:19.009601,-8.321465649779517,-0.7389822489796777
2019-03-04 20:51:19.009678,-8.320359784804955,-0.7361454649144965
2019-03-04 20:51:19.009765,-8.321778176837546,-0.7340058565941481
2019-03-04 20:51:19.009894,-8.319157757658692,-0.7366022352300765
2019-03-04 20:51:19.010025,-8.31860482517141,-0.7370590055456565
2019-03-04 20:51:19.010166,-8.320407865890806,-0.7372513298890587
2019-03-04 20:51:19.010306,-8.318773108971888,-0.7371792082602829
2019-03-04 20:51:19.010448,-8.323340812127688,-0.7384773975782472
2019-03-04 20:51:19.010588,-8.32134544706489,-0.7380927488914429
2019-03-04 20:51:19.010704,-8.323893744614969,-0.7373234515178345
2019-03-04 20:51:19.010786,-8.319398163087945,-0.7372994109749093
2019-03-04 20:51:19.146022,-8.330024083060911,-0.7388620462650514
2019-03-04 20:51:19.146227,-8.327379623339132,-0.738285073234845
2019-03-04 20:51:19.146324,-8.32805275854104,-0.7388380057221261
2019-03-04 20:51:19.146413,-8.329807718174584,-0.7418190330448587
2019-03-04 20:51:19.146502,-8.329302866773153,-0.7413141816434282
2019-03-04 20:51:19.146587,-8.328341245056142,-0.7406410464415208
2019-03-04 20:51:19.146674,-8.324374555473474,-0.7379004245480408
2019-03-04 20:51:19.146760,-8.325047690675381,-0.7373474920607598
2019-03-04 20:51:19.146846,-8.32266767692578,-0.7355444513413649
2019-03-04 20:51:19.146932,-8.321369487607816,-0.7383331543206956
2019-03-04 20:51:19.147016,-8.324735163617353,-0.738741843550425
2019-03-04 20:51:19.147101,-8.329783677631658,-0.7400400328683893
2019-03-04 20:51:19.147187,-8.331947326494932,-0.7423960060750651
2019-03-04 20:51:19.147272,-8.331057826406697,-0.739919830153763
2019-03-04 20:51:19.147357,-8.324711123074428,-0.736554154144226
2019-03-04 20:51:19.147442,-8.322451312039453,-0.736097383828646
2019-03-04 20:51:19.147526,-8.322499393125304,-0.7410737762141756
2019-03-04 20:51:19.147610,-8.322475352582378,-0.7346549512531302
2019-03-04 20:51:19.147695,-8.321585852494144,-0.7368426406593291
2019-03-04 20:51:19.147779,-8.324158190587147,-0.7398477085249872
2019-03-04 20:51:19.147863,-8.323653339185716,-0.740833370784923
2019-03-04 20:51:19.147948,-8.320359784804955,-0.740112154497165
2019-03-04 20:51:19.148032,-8.318244217027532,-0.7389341678938272
2019-03-04 20:51:19.148117,-8.318316338656308,-0.739655384181585
2019-03-04 20:51:19.148202,-8.316032487078408,-0.7353521269979628
2019-03-04 20:51:19.148288,-8.316513297936913,-0.7368666812022544
2019-03-04 20:51:19.148373,-8.3199270550323,-0.737828302919265
2019-03-04 20:51:19.148587,-8.321273325436115,-0.7388620462650514
2019-03-04 20:51:19.148737,-8.322331109324827,-0.7401361950400903
2019-03-04 20:51:19.148837,-8.32129736597904,-0.7389101273509019
2019-03-04 20:51:19.286200,-8.322908082355033,-0.7394390192952577
2019-03-04 20:51:19.286402,-8.31668158173739,-0.7391745733230798
2019-03-04 20:51:19.286502,-8.318412500828009,-0.7363858703437491
2019-03-04 20:51:19.286593,-8.315527635676977,-0.7363377892578986
2019-03-04 20:51:19.286681,-8.315142986990173,-0.7367705190305534
2019-03-04 20:51:19.286766,-8.316441176308137,-0.737010924459806
2019-03-04 20:51:19.286851,-8.318027852141205,-0.7391505327801545
2019-03-04 20:51:19.286937,-8.320095338832777,-0.7397755868962114
2019-03-04 20:51:19.287023,-8.31942220363087,-0.7418190330448587
2019-03-04 20:51:19.287110,-8.314974703189696,-0.7416988303302324
2019-03-04 20:51:19.287196,-8.31627289250766,-0.7386216408357987
2019-03-04 20:51:19.287280,-8.320720392948834,-0.7382610326919198
2019-03-04 20:51:19.356009,-8.317619162911475,-0.7394390192952577
2019-03-04 20:51:19.356212,-8.315671878934529,-0.7427085331330935
2019-03-04 20:51:19.356311,-8.317450879110998,-0.7428287358477198
2019-03-04 20:51:19.356402,-8.317907649426578,-0.7411458978429514
2019-03-04 20:51:19.356491,-8.320071298289852,-0.7401842761259408
2019-03-04 20:51:19.356577,-8.321730095751695,-0.738645681378724
2019-03-04 20:51:19.426114,-8.321081001092713,-0.7373955731466103
2019-03-04 20:51:19.426318,-8.317450879110998,-0.7388620462650514
2019-03-04 20:51:19.426419,-8.315383392419426,-0.7365781946871512
2019-03-04 20:51:19.426509,-8.317450879110998,-0.7332605997634649
2019-03-04 20:51:19.426597,-8.31261872998302,-0.7368666812022544
2019-03-04 20:51:19.426683,-8.317210473681746,-0.7388620462650514
2019-03-04 20:51:19.426770,-8.322403230953602,-0.7393909382094072
2019-03-04 20:51:19.426855,-8.321922420095097,-0.7368186001164039
2019-03-04 20:51:19.426941,-8.316417135765212,-0.735183843197486
2019-03-04 20:51:19.496974,-8.314205405816088,-0.7346068701672797
2019-03-04 20:51:19.497181,-8.314590054502892,-0.7396313436386598
2019-03-04 20:51:19.497281,-8.317210473681746,-0.736097383828646
2019-03-04 20:51:19.497371,-8.318364419742158,-0.7333808024780912
2019-03-04 20:51:19.497457,-8.31942220363087,-0.7387899246362756
2019-03-04 20:51:19.497544,-8.305598891448843,-0.754608601881099
2019-03-04 20:51:19.497630,-8.307906783569669,-0.7566760885726717
2019-03-04 20:51:19.497715,-8.314566013959967,-0.7601619672968348
2019-03-04 20:51:19.497801,-8.314205405816088,-0.7600177240392832
2019-03-04 20:51:19.497888,-8.306969202395583,-0.7591282239510485
2019-03-04 20:51:19.497974,-8.304925756246936,-0.7554981019693338
2019-03-04 20:51:19.498059,-8.305190202219114,-0.755522142512259
2019-03-04 20:51:19.498144,-8.306945161852658,-0.7557385073985864
2019-03-04 20:51:19.498230,-8.307762540312117,-0.754055669393818
2019-03-04 20:51:19.498316,-8.303723729100673,-0.7568203318302232
2019-03-04 20:51:19.498402,-8.309998310804167,-0.761267832271397
2019-03-04 20:51:19.498487,-8.307906783569669,-0.7610514673850697
2019-03-04 20:51:19.566854,-8.306392229365377,-0.7579261968047853
2019-03-04 20:51:19.567057,-8.306536472622929,-0.7614601566147992
2019-03-04 20:51:19.567157,-8.306296067193676,-0.7615082377006497
2019-03-04 20:51:19.567247,-8.305021918418637,-0.7582868049486643
2019-03-04 20:51:19.567333,-8.304829594075235,-0.7577819535472338
2019-03-04 20:51:19.567420,-8.308700121486202,-0.755978912827839
2019-03-04 20:51:19.567506,-8.306824959138032,-0.7579261968047853
2019-03-04 20:51:19.567593,-8.310118513518793,-0.7601619672968348
2019-03-04 20:51:19.567678,-8.314998743732621,-0.763912291993176
2019-03-04 20:51:19.567764,-8.312137919124515,-0.7613159133572476
2019-03-04 20:51:19.567850,-8.301007147750118,-0.756339520971718
2019-03-04 20:51:19.567936,-8.304228580502103,-0.7567482102014474
2019-03-04 20:51:19.568023,-8.30302655335584,-0.7596090348095538
2019-03-04 20:51:19.706903,-8.302137053267606,-0.7581425616911127
2019-03-04 20:51:19.707106,-8.30490171570401,-0.759176305036899
2019-03-04 20:51:19.707342,-8.302185134353456,-0.761532278243575
2019-03-04 20:51:19.707476,-8.301295634265221,-0.7575415481179811
2019-03-04 20:51:19.707624,-8.307906783569669,-0.7594647915520022
2019-03-04 20:51:19.707774,-8.312402365096693,-0.7608351024987423
2019-03-04 20:51:19.707918,-8.314469851788266,-0.7623496567030339
2019-03-04 20:51:19.708058,-8.312907216498123,-0.760811061955817
2019-03-04 20:51:19.708209,-8.311993675866963,-0.7568203318302232
2019-03-04 20:51:19.708362,-8.30901264854423,-0.7607870214128918
2019-03-04 20:51:19.708510,-8.30983002700369,-0.7574934670321306
2019-03-04 20:51:19.708667,-8.311825392066487,-0.7541999126513695
2019-03-04 20:51:19.708817,-8.310911851435327,-0.7558106290273622
2019-03-04 20:51:19.708988,-8.308315472799398,-0.7584550887491411
2019-03-04 20:51:19.709029,-8.311080135235803,-0.7591282239510485
2019-03-04 20:51:19.709069,-8.3084116349711,-0.7589599401505717
2019-03-04 20:51:19.709112,-8.308820324200829,-0.7636238054780728
2019-03-04 20:51:19.709153,-8.301343715351072,-0.7564597236863443
2019-03-04 20:51:19.709203,-8.302834229012438,-0.7592243861227496
2019-03-04 20:51:19.709369,-8.305142121133263,-0.7602581294685359
2019-03-04 20:51:19.709522,-8.303699688557748,-0.7606668186982655
2019-03-04 20:51:19.709677,-8.305454648191292,-0.7594888320949275
2019-03-04 20:51:19.709835,-8.307786580855042,-0.7618207647586781
2019-03-04 20:51:19.709996,-8.315287230247725,-0.7582146833198885
2019-03-04 20:51:19.710156,-8.31302741921275,-0.7592484266656748
2019-03-04 20:51:19.710318,-8.314013081472686,-0.7614841971577244
2019-03-04 20:51:19.710474,-8.306199905021975,-0.7567001291155969
2019-03-04 20:51:19.710618,-8.306608594251705,-0.7554981019693338
2019-03-04 20:51:19.710716,-8.306776878052181,-0.7570607372594759
2019-03-04 20:51:19.710803,-8.304613229188908,-0.756892453458999
2019-03-04 20:51:19.710889,-8.306368188822452,-0.7606668186982655
2019-03-04 20:51:19.710975,-8.313195703013227,-0.7570847778024011
2019-03-04 20:51:19.711061,-8.312186000210366,-0.7598734807817317
2019-03-04 20:51:19.711149,-8.31403712201561,-0.7598734807817317
2019-03-04 20:51:19.711234,-8.307425972711163,-0.7598253996958811
2019-03-04 20:51:19.711320,-8.30663263479463,-0.7575655886609064
2019-03-04 20:51:19.778535,-8.303411202042644,-0.758623372549618
2019-03-04 20:51:19.778738,-8.305334445476666,-0.7579742778906359
2019-03-04 20:51:19.778837,-8.305454648191292,-0.7592724672086001
2019-03-04 20:51:19.778927,-8.311320540665056,-0.7610514673850697
2019-03-04 20:51:19.779014,-8.31160902718016,-0.7642969406799802
2019-03-04 20:51:19.779100,-8.313003378669825,-0.763816129821475
2019-03-04 20:51:19.779185,-8.312787013783497,-0.7613159133572476
2019-03-04 20:51:19.779271,-8.307329810539462,-0.7618928863874539
2019-03-04 20:51:19.779357,-8.3038439318153,-0.7594167104661517
2019-03-04 20:51:19.779443,-8.306488391537078,-0.7594167104661517
2019-03-04 20:51:19.779529,-8.303819891272374,-0.7569645750877748
2019-03-04 20:51:19.779613,-8.309517499945661,-0.7592965077515254
2019-03-04 20:51:19.779699,-8.311969635324038,-0.7616524809582013
2019-03-04 20:51:19.779786,-8.311897513695262,-0.7624217783318097
2019-03-04 20:51:19.779872,-8.314710257217518,-0.7610033862992192
2019-03-04 20:51:19.779959,-8.311801351523561,-0.7614361160718739
2019-03-04 20:51:19.780045,-8.309661743203213,-0.7579983184335611
2019-03-04 20:51:19.780130,-8.307305769996537,-0.7595849942666285
2019-03-04 20:51:19.780215,-8.306656675337555,-0.7595849942666285
2019-03-04 20:51:19.780301,-8.310407000033896,-0.7608591430416676
2019-03-04 20:51:19.780386,-8.308700121486202,-0.760714899784116
2019-03-04 20:51:19.780472,-8.307618297054566,-0.7577338724613832
2019-03-04 20:51:19.780558,-8.307978905198445,-0.7587676158071696
2019-03-04 20:51:19.780643,-8.30668071588048,-0.7588397374359453
2019-03-04 20:51:19.780729,-8.304204539959178,-0.7568443723731485
2019-03-04 20:51:19.780814,-8.304420904845506,-0.7571809399741022
2019-03-04 20:51:19.780939,-8.304180499416253,-0.7555702235981095
2019-03-04 20:51:19.781169,-8.308748202572053,-0.755522142512259
2019-03-04 20:51:19.781322,-8.31160902718016,-0.7548009262245011
2019-03-04 20:51:19.848553,-8.308676080943277,-0.7569164940019243
2019-03-04 20:51:19.848757,-8.31033487840512,-0.7585031698349917
2019-03-04 20:51:19.848857,-8.305911418506872,-0.757805994090159
2019-03-04 20:51:19.848992,-8.305935459049797,-0.759536913180778
2019-03-04 20:51:19.849083,-8.306055661764423,-0.7576136697467569
2019-03-04 20:51:19.849169,-8.30434878321673,-0.7576857913755327
2019-03-04 20:51:19.918659,-8.306800918595107,-0.7555702235981095
2019-03-04 20:51:19.918860,-8.306464350994153,-0.758166602234038
2019-03-04 20:51:19.918961,-8.307906783569669,-0.7599456024105075
2019-03-04 20:51:19.919050,-8.306945161852658,-0.7590561023222727
2019-03-04 20:51:19.919138,-8.309180932344708,-0.7578540751760096
2019-03-04 20:51:19.919225,-8.3061277833932,-0.7608831835845928
2019-03-04 20:51:19.919312,-8.307450013254089,-0.7588878185217959
2019-03-04 20:51:19.919398,-8.3085077971428,-0.7578540751760096
2019-03-04 20:51:19.919483,-8.30475747244646,-0.754055669393818
2019-03-04 20:51:19.989448,-8.30845971605695,-0.7580463995194117
2019-03-04 20:51:19.989643,-8.30855587822865,-0.7571809399741022
2019-03-04 20:51:19.989743,-8.311633067723085,-0.7605706565265644
2019-03-04 20:51:19.989834,-8.312306202924992,-0.761267832271397
2019-03-04 20:51:19.989921,-8.307858702483818,-0.7569405345448496
2019-03-04 20:51:19.990008,-8.306392229365377,-0.7585752914637675
2019-03-04 20:51:19.990094,-8.308195270084772,-0.7627343053898381
2019-03-04 20:51:19.990180,-8.311801351523561,-0.7594167104661517
2019-03-04 20:51:19.990266,-8.308796283657903,-0.7610514673850697
2019-03-04 20:51:19.990352,-8.305502729277142,-0.761989048559155
2019-03-04 20:51:19.990439,-8.310166594604643,-0.7621092512737813
2019-03-04 20:51:19.990524,-8.308820324200829,-0.7609553052133686
2019-03-04 20:51:19.990609,-8.307113445653135,-0.7601138862109843
2019-03-04 20:51:19.990695,-8.310310837862195,-0.7657634137984213
2019-03-04 20:51:19.990781,-8.303315039870943,-0.7615803593294255
2019-03-04 20:51:19.990868,-8.301680282952026,-0.7605466159836392
2019-03-04 20:51:19.990953,-8.30293039118414,-0.7609553052133686
2019-03-04 20:51:20.059561,-8.304733431903534,-0.7592965077515254
2019-03-04 20:51:20.059765,-8.30201685055298,-0.7578540751760096
2019-03-04 20:51:20.059864,-8.305983540135648,-0.7615082377006497
2019-03-04 20:51:20.059955,-8.30809910791307,-0.7631910757054181
2019-03-04 20:51:20.060042,-8.31083972980655,-0.7632631973341939
2019-03-04 20:51:20.060129,-8.31216195966744,-0.7610274268421444
2019-03-04 20:51:20.060216,-8.307281729453612,-0.7630708729907918
2019-03-04 20:51:20.060303,-8.30475747244646,-0.7614601566147992
2019-03-04 20:51:20.060389,-8.30531040493374,-0.7617486431299023
2019-03-04 20:51:20.060474,-8.308748202572053,-0.7611235890138455
2019-03-04 20:51:20.060560,-8.310190635147569,-0.7641767379653539
2019-03-04 20:51:20.060646,-8.310094472975868,-0.7608831835845928
2019-03-04 20:51:20.060733,-8.315575716762828,-0.7644652244804571
2019-03-04 20:51:20.129502,-8.31672966282324,-0.7619409674733044
2019-03-04 20:51:20.129703,-8.313700554414657,-0.7618207647586781
2019-03-04 20:51:20.129803,-8.304324742673804,-0.7625900621322865
2019-03-04 20:51:20.129892,-8.301968769467129,-0.7595849942666285
2019-03-04 20:51:20.129979,-8.305743134706395,-0.7590320617793475
2019-03-04 20:51:20.130066,-8.30475747244646,-0.7594167104661517
2019-03-04 20:51:20.130151,-8.309661743203213,-0.7627102648469128
2019-03-04 20:51:20.130237,-8.310310837862195,-0.7633112784200444
2019-03-04 20:51:20.130322,-8.306103742850274,-0.7640324947078023
2019-03-04 20:51:20.130408,-8.309902148632466,-0.7624698594176602
2019-03-04 20:51:20.130494,-8.306344148279527,-0.767013522030535
2019-03-04 20:51:20.130580,-8.309036689087156,-0.7605946970694897
2019-03-04 20:51:20.130666,-8.30617586447905,-0.7582868049486643
2019-03-04 20:51:20.130752,-8.307065364567285,-0.7606668186982655
2019-03-04 20:51:20.130838,-8.307353851082388,-0.7606908592411907
2019-03-04 20:51:20.131053,-8.306704756423406,-0.7619650080162297
2019-03-04 20:51:20.131193,-8.314638135588742,-0.7626862243039876
2019-03-04 20:51:20.131290,-8.314566013959967,-0.7627823864756886
2019-03-04 20:51:20.131379,-8.312787013783497,-0.7615563187865002
2019-03-04 20:51:20.269415,-8.306416269908302,-0.7622294539884076
2019-03-04 20:51:20.269598,-8.30992618917539,-0.7610033862992192
2019-03-04 20:51:20.269687,-8.305887377963947,-0.762541981046436
2019-03-04 20:51:20.269766,-8.30627202665075,-0.7605946970694897
2019-03-04 20:51:20.269843,-8.305983540135648,-0.765186440768215
2019-03-04 20:51:20.269919,-8.310767608177775,-0.7631429946195676
2019-03-04 20:51:20.269995,-8.304204539959178,-0.7606187376124149
2019-03-04 20:51:20.270072,-8.30297847226999,-0.761989048559155
2019-03-04 20:51:20.270147,-8.303411202042644,-0.7611235890138455
2019-03-04 20:51:20.270223,-8.30571909416347,-0.7613399539001728
2019-03-04 20:51:20.270299,-8.302858269555363,-0.7589118590647211
2019-03-04 20:51:20.270375,-8.306704756423406,-0.7606427781553402
2019-03-04 20:51:20.270451,-8.310046391890017,-0.7596571158954043
2019-03-04 20:51:20.270527,-8.3153593518765,-0.7612197511855465
2019-03-04 20:51:20.270602,-8.308748202572053,-0.7624698594176602
2019-03-04 20:51:20.270677,-8.308796283657903,-0.7638401703644002
2019-03-04 20:51:20.270753,-8.30201685055298,-0.7586474130925432
2019-03-04 20:51:20.270828,-8.30795486465552,-0.7599456024105075
2019-03-04 20:51:20.270903,-8.30932517560226,-0.7633834000488202
2019-03-04 20:51:20.270977,-8.308195270084772,-0.7600177240392832
2019-03-04 20:51:20.271053,-8.30795486465552,-0.7637440081926992
2019-03-04 20:51:20.271128,-8.308363553885249,-0.7616765215011265
2019-03-04 20:51:20.271203,-8.309060729630081,-0.7630949135337171
2019-03-04 20:51:20.271279,-8.308339513342323,-0.7645373461092329
2019-03-04 20:51:20.271354,-8.304781512989384,-0.7636718865639234
2019-03-04 20:51:20.271429,-8.305478688734217,-0.761171670099696
2019-03-04 20:51:20.271505,-8.30531040493374,-0.7608831835845928
2019-03-04 20:51:20.271580,-8.30617586447905,-0.7608351024987423
2019-03-04 20:51:20.271656,-8.308820324200829,-0.7593686293803011
2019-03-04 20:51:20.271731,-8.313363986813703,-0.7622054134454823
2019-03-04 20:51:20.271807,-8.312642770525946,-0.762085210730856
2019-03-04 20:51:20.271882,-8.311681148808935,-0.7622294539884076
2019-03-04 20:51:20.271957,-8.311512865008458,-0.7598734807817317
2019-03-04 20:51:20.272033,-8.303747769643598,-0.7602581294685359
2019-03-04 20:51:20.272108,-8.304276661587954,-0.7622775350742581
2019-03-04 20:51:20.272183,-8.306824959138032,-0.7604985348977886
2019-03-04 20:51:20.338583,-8.306704756423406,-0.7593205482944506
2019-03-04 20:51:20.338787,-8.309661743203213,-0.7621573323596318
2019-03-04 20:51:20.338886,-8.31312358138445,-0.7649460353389623
2019-03-04 20:51:20.338976,-8.310479121662672,-0.761989048559155
2019-03-04 20:51:20.339064,-8.311320540665056,-0.7659557381418234
2019-03-04 20:51:20.339151,-8.304060296701627,-0.7629266297332402
2019-03-04 20:51:20.339237,-8.312402365096693,-0.7641526974224286
2019-03-04 20:51:20.339323,-8.309180932344708,-0.7602340889256106
2019-03-04 20:51:20.339409,-8.30348332367142,-0.7617726836728276
2019-03-04 20:51:20.339495,-8.306993242938509,-0.7632872378771192
2019-03-04 20:51:20.408521,-8.307450013254089,-0.761532278243575
2019-03-04 20:51:20.408723,-8.306344148279527,-0.758262764405739
2019-03-04 20:51:20.408823,-8.312186000210366,-0.7585031698349917
2019-03-04 20:51:20.408956,-8.311512865008458,-0.7607629808699665
2019-03-04 20:51:20.409050,-8.30901264854423,-0.758719534721319
2019-03-04 20:51:20.409138,-8.30663263479463,-0.7583348860345148
2019-03-04 20:51:20.478643,-8.30434878321673,-0.7569405345448496
2019-03-04 20:51:20.478845,-8.300069566576033,-0.7587435752642443
2019-03-04 20:51:20.478946,-8.308724162029128,-0.759176305036899
2019-03-04 20:51:20.479037,-8.311681148808935,-0.7603783321831622
2019-03-04 20:51:20.479124,-8.315287230247725,-0.7601138862109843
2019-03-04 20:51:20.479335,-8.312330243467917,-0.7635276433063718
2019-03-04 20:51:20.479478,-8.30754617542579,-0.7612918728143223
2019-03-04 20:51:20.479578,-8.306392229365377,-0.7564597236863443
2019-03-04 20:51:20.479666,-8.303747769643598,-0.7538633450504159
2019-03-04 20:51:20.479753,-8.301536039694474,-0.7594888320949275
2019-03-04 20:51:20.549481,-8.298723296172216,-0.7553057776259317
2019-03-04 20:51:20.549680,-8.301632201866175,-0.7565318453151201
2019-03-04 20:51:20.549781,-8.310911851435327,-0.7588156968930201
2019-03-04 20:51:20.549872,-8.310863770349476,-0.7575655886609064
2019-03-04 20:51:20.549961,-8.312594689440095,-0.7594167104661517
2019-03-04 20:51:20.550047,-8.311224378493355,-0.7592965077515254
2019-03-04 20:51:20.550133,-8.306608594251705,-0.7577338724613832
2019-03-04 20:51:20.550219,-8.30430070213088,-0.7580704400623369
2019-03-04 20:51:20.550306,-8.306103742850274,-0.7597532780671054
2019-03-04 20:51:20.550392,-8.306752837509256,-0.7542479937372201
2019-03-04 20:51:20.550478,-8.308387594428174,-0.7571568994311769
2019-03-04 20:51:20.550564,-8.309541540488587,-0.7606908592411907
2019-03-04 20:51:20.550649,-8.30978194591784,-0.7623496567030339
2019-03-04 20:51:20.550736,-8.306055661764423,-0.760089845668059
2019-03-04 20:51:20.550821,-8.30490171570401,-0.7577819535472338
2019-03-04 20:51:20.550907,-8.306824959138032,-0.7570366967165506
2019-03-04 20:51:20.619398,-8.311344581207981,-0.7613880349860234
2019-03-04 20:51:20.619602,-8.31389287875806,-0.7567482102014474
2019-03-04 20:51:20.619702,-8.311825392066487,-0.7609072241275181
2019-03-04 20:51:20.619794,-8.306897080766808,-0.7561231560853906
2019-03-04 20:51:20.619922,-8.303916053444075,-0.7585752914637675
2019-03-04 20:51:20.620067,-8.30627202665075,-0.7541758721084443
2019-03-04 20:51:20.620212,-8.307930824112594,-0.7545605207952485
2019-03-04 20:51:20.620367,-8.311224378493355,-0.7582868049486643
2019-03-04 20:51:20.620522,-8.31343610844248,-0.7593926699232264
2019-03-04 20:51:20.620681,-8.314638135588742,-0.7597773186100306
2019-03-04 20:51:20.620839,-8.31120033795043,-0.7616524809582013
2019-03-04 20:51:20.621004,-8.31038295949097,-0.7596571158954043
2019-03-04 20:51:20.621098,-8.307353851082388,-0.7590320617793475
2019-03-04 20:51:20.689515,-8.310070432432942,-0.7565078047721948
2019-03-04 20:51:20.689719,-8.307425972711163,-0.7583829671203653
2019-03-04 20:51:20.689817,-8.308147188998921,-0.7568443723731485
2019-03-04 20:51:20.689906,-8.310503162205597,-0.7587676158071696
2019-03-04 20:51:20.689994,-8.312282162382067,-0.7604985348977886
2019-03-04 20:51:20.690081,-8.314926622103846,-0.7600177240392832
2019-03-04 20:51:20.690167,-8.314013081472686,-0.7625179405035107
2019-03-04 20:51:20.690253,-8.30617586447905,-0.7566039669438959
2019-03-04 20:51:20.690338,-8.303867972358224,-0.7563154804287927
2019-03-04 20:51:20.690425,-8.306296067193676,-0.7583348860345148
2019-03-04 20:51:20.690511,-8.303964134529926,-0.7573251832316538
2019-03-04 20:51:20.690597,-8.307570215968715,-0.7538873855933411
2019-03-04 20:51:20.690684,-8.30983002700369,-0.7568203318302232
2019-03-04 20:51:20.690770,-8.313868838215134,-0.7598734807817317
2019-03-04 20:51:20.690856,-8.311344581207981,-0.7599696429534327
2019-03-04 20:51:20.690942,-8.304132418330402,-0.7585752914637675
2019-03-04 20:51:20.691028,-8.300983107207193,-0.7565318453151201
2019-03-04 20:51:20.829386,-8.30490171570401,-0.7589358996076464
2019-03-04 20:51:20.829588,-8.303411202042644,-0.7560510344566148
2019-03-04 20:51:20.829688,-8.302209174896381,-0.7518920205305442
2019-03-04 20:51:20.829779,-8.297112579796224,-0.7544162775376969
2019-03-04 20:51:20.829869,-8.29773763391228,-0.7537671828787148
2019-03-04 20:51:20.829954,-8.300910985578417,-0.7538873855933411
2019-03-04 20:51:20.830041,-8.303459283128495,-0.7576377102896822
2019-03-04 20:51:20.830128,-8.305454648191292,-0.7550413316537538
2019-03-04 20:51:20.830214,-8.307666378140416,-0.7561231560853906
2019-03-04 20:51:20.830301,-8.305045958961562,-0.7552096154542306
2019-03-04 20:51:20.830388,-8.298530971828814,-0.7528776827904801
2019-03-04 20:51:20.830606,-8.30430070213088,-0.7514833313008147
2019-03-04 20:51:20.830721,-8.302137053267606,-0.7563876020575685
2019-03-04 20:51:20.830863,-8.304156458873328,-0.752517074646601
2019-03-04 20:51:20.831011,-8.303603526386047,-0.7522526286744231
2019-03-04 20:51:20.831158,-8.30764233759749,-0.7522766692173484
2019-03-04 20:51:20.831304,-8.305021918418637,-0.7502572636116263
2019-03-04 20:51:20.831454,-8.303627566928972,-0.7549211289391274
2019-03-04 20:51:20.831612,-8.301367755893997,-0.75150737184374
2019-03-04 20:51:20.831760,-8.301536039694474,-0.7548970883962022
2019-03-04 20:51:20.831907,-8.306103742850274,-0.7517958583588431
2019-03-04 20:51:20.832059,-8.302257255982232,-0.7516756556442168
2019-03-04 20:51:20.832211,-8.302689985754887,-0.7494639256950926
2019-03-04 20:51:20.832364,-8.303339080413869,-0.7514112096720389
2019-03-04 20:51:20.832522,-8.303290999328018,-0.7515554529295905
2019-03-04 20:51:20.832681,-8.305791215792246,-0.751699696187142
2019-03-04 20:51:20.832839,-8.303098674984616,-0.7550172911108285
2019-03-04 20:51:20.833049,-8.29860309345759,-0.7562673993429422
2019-03-04 20:51:20.833209,-8.30064653960624,-0.7541277910225938
2019-03-04 20:51:20.833369,-8.296078836450437,-0.7507621150130568
2019-03-04 20:51:20.833526,-8.2972808635967,-0.7499687770965231
2019-03-04 20:51:20.833684,-8.301752404580801,-0.7513631285861884
2019-03-04 20:51:20.833846,-8.305502729277142,-0.7508823177276831
2019-03-04 20:51:20.834003,-8.292929525327228,-0.7517718178159178
2019-03-04 20:51:20.834164,-8.295694187763633,-0.7469877497737905
2019-03-04 20:51:20.834322,-8.298675215086366,-0.7519401016163947
2019-03-04 20:51:20.899454,-8.30064653960624,-0.7524209124749
2019-03-04 20:51:20.899668,-8.303651607471897,-0.7548009262245011
2019-03-04 20:51:20.899770,-8.303747769643598,-0.7524689935607505
2019-03-04 20:51:20.899860,-8.302665945211961,-0.7560991155424653
2019-03-04 20:51:20.899946,-8.29896370160147,-0.751603534015441
2019-03-04 20:51:20.900032,-8.298026120427384,-0.7483099796346799
2019-03-04 20:51:20.900117,-8.297064498710373,-0.7505938312125799
2019-03-04 20:51:20.900202,-8.296487525680167,-0.7475647228039968
2019-03-04 20:51:20.900287,-8.295093174190502,-0.7484782634351568
2019-03-04 20:51:20.900372,-8.29636732296554,-0.7511227231569357
2019-03-04 20:51:20.900457,-8.300165728747734,-0.7538633450504159
2019-03-04 20:51:20.900543,-8.304493026474281,-0.7544403180806222
2019-03-04 20:51:20.900630,-8.301415836979848,-0.7496081689526441
2019-03-04 20:51:20.900716,-8.295165295819277,-0.7504255474121031
2019-03-04 20:51:20.900803,-8.295117214733427,-0.7492475608087652
2019-03-04 20:51:20.900931,-8.294131552473491,-0.7491513986370641
2019-03-04 20:51:20.901027,-8.296006714821662,-0.7494398851521673
2019-03-04 20:51:20.901113,-8.299564715174602,-0.7508823177276831
2019-03-04 20:51:20.968515,-8.30398817507285,-0.7487667499502599
2019-03-04 20:51:20.968719,-8.302257255982232,-0.752156466502722
2019-03-04 20:51:20.968819,-8.300261890919435,-0.7514352502149642
2019-03-04 20:51:20.968956,-8.297545309568878,-0.7507621150130568
2019-03-04 20:51:20.969051,-8.295790349935334,-0.749319682437541
2019-03-04 20:51:20.969137,-8.295165295819277,-0.7493437229804663
2019-03-04 20:51:20.969225,-8.297352985225476,-0.748862912121961
2019-03-04 20:51:20.969310,-8.296920255452822,-0.7467954254303883
2019-03-04 20:51:20.969397,-8.302233215439307,-0.7518439394446936
2019-03-04 20:51:20.969483,-8.305887377963947,-0.7526132368183021
2019-03-04 20:51:21.039353,-8.303867972358224,-0.7551855749113053
2019-03-04 20:51:21.039549,-8.302185134353456,-0.7504736284979536
2019-03-04 20:51:21.039648,-8.29982916114678,-0.7517477772729926
2019-03-04 20:51:21.039738,-8.295069133647576,-0.754151831565519
2019-03-04 20:51:21.039827,-8.293843065958388,-0.7553778992547074
2019-03-04 20:51:21.039914,-8.295525903963156,-0.7528776827904801
2019-03-04 20:51:21.040000,-8.298530971828814,-0.7540797099367432
2019-03-04 20:51:21.040086,-8.303218877699242,-0.7510025204423094
2019-03-04 20:51:21.040293,-8.302545742497335,-0.7518198989017684
2019-03-04 20:51:21.040407,-8.302858269555363,-0.7504015068691778
2019-03-04 20:51:21.040547,-8.300574417977463,-0.7522766692173484
2019-03-04 20:51:21.040695,-8.293770944329612,-0.7471800741171926
2019-03-04 20:51:21.040844,-8.29408347138764,-0.7472281552030431
2019-03-04 20:51:21.041031,-8.295165295819277,-0.745304911769022
2019-03-04 20:51:21.041187,-8.295045093104651,-0.7490792770082884
2019-03-04 20:51:21.041344,-8.298891579972695,-0.7513150475003378
2019-03-04 20:51:21.109485,-8.30074270177794,-0.7541277910225938
2019-03-04 20:51:21.109691,-8.298771377258067,-0.7501370608969999
2019-03-04 20:51:21.109792,-8.297978039341533,-0.7519160610734694
2019-03-04 20:51:21.109884,-8.294852768761249,-0.7482859390917547
2019-03-04 20:51:21.109972,-8.294203674102267,-0.75150737184374
2019-03-04 20:51:21.110058,-8.296150958079213,-0.7496081689526441
2019-03-04 20:51:21.110146,-8.296896214909896,-0.7494879662380178
2019-03-04 20:51:21.110231,-8.297016417624523,-0.746122290228481
2019-03-04 20:51:21.110317,-8.297184701425,-0.7484301823493062
2019-03-04 20:51:21.110403,-8.297160660882074,-0.7467473443445378
2019-03-04 20:51:21.110489,-8.30293039118414,-0.7542960748230706
2019-03-04 20:51:21.110575,-8.30302655335584,-0.7545605207952485
2019-03-04 20:51:21.110660,-8.300213809833584,-0.7517958583588431
2019-03-04 20:51:21.179410,-8.296655809480644,-0.7496322094955694
2019-03-04 20:51:21.179612,-8.299925323318481,-0.7500889798111494
2019-03-04 20:51:21.179711,-8.29978108006093,-0.7500408987252989
2019-03-04 20:51:21.179801,-8.302738066840737,-0.7475406822610715
2019-03-04 20:51:21.179888,-8.300766742320866,-0.7474204795464452
2019-03-04 20:51:21.179974,-8.302185134353456,-0.7514592907578894
2019-03-04 20:51:21.180060,-8.301800485666652,-0.7504255474121031
2019-03-04 20:51:21.180145,-8.302449580325634,-0.7522526286744231
2019-03-04 20:51:21.180230,-8.300574417977463,-0.7509544393564589
2019-03-04 20:51:21.180316,-8.296295201336765,-0.7492235202658399
2019-03-04 20:51:21.180403,-8.295477822877306,-0.746675222715762
2019-03-04 20:51:21.180489,-8.295718228306558,-0.7530219260480316
2019-03-04 20:51:21.180576,-8.296559647308943,-0.7495600878667936
2019-03-04 20:51:21.180662,-8.298266525856636,-0.7496081689526441
2019-03-04 20:51:21.180748,-8.300983107207193,-0.7540075883079674
2019-03-04 20:51:21.180834,-8.303819891272374,-0.7507140339272063
2019-03-04 20:51:21.180962,-8.30256978304026,-0.7507140339272063
2019-03-04 20:51:21.318525,-8.296535606766017,-0.7527334395329285
2019-03-04 20:51:21.318729,-8.300886945035492,-0.7496322094955694
2019-03-04 20:51:21.318829,-8.302305337068082,-0.7524449530178252
2019-03-04 20:51:21.318921,-8.299444512459976,-0.7551134532825295
2019-03-04 20:51:21.319007,-8.298482890742964,-0.7537191017928643
2019-03-04 20:51:21.319093,-8.296199039165064,-0.7530219260480316
2019-03-04 20:51:21.319179,-8.296679850023569,-0.7504976690408789
2019-03-04 20:51:21.319265,-8.297929958255683,-0.7518920205305442
2019-03-04 20:51:21.319350,-8.301728364037876,-0.7516275745583663
2019-03-04 20:51:21.319435,-8.297473187940103,-0.7506419122984305
2019-03-04 20:51:21.319520,-8.304661310274758,-0.7504255474121031
2019-03-04 20:51:21.319605,-8.301007147750118,-0.7523968719319747
2019-03-04 20:51:21.319690,-8.296848133824046,-0.7522766692173484
2019-03-04 20:51:21.319775,-8.296920255452822,-0.7534546558206864
2019-03-04 20:51:21.319861,-8.294371957902744,-0.7497283716672705
2019-03-04 20:51:21.319947,-8.297160660882074,-0.7484542228922315
2019-03-04 20:51:21.320033,-8.294179633559342,-0.7489109932078115
2019-03-04 20:51:21.320118,-8.293794984872537,-0.7493437229804663
2019-03-04 20:51:21.320204,-8.297905917712757,-0.7476368444327726
2019-03-04 20:51:21.320289,-8.300141688204809,-0.7493437229804663
2019-03-04 20:51:21.320374,-8.301175431550595,-0.7497043311243452
2019-03-04 20:51:21.320459,-8.297328944682551,-0.7511948447857115
2019-03-04 20:51:21.320545,-8.296102876993363,-0.7520362637880957
2019-03-04 20:51:21.320630,-8.293674782157911,-0.7513871691291136
2019-03-04 20:51:21.320845,-8.29266507935505,-0.7478291687761747
2019-03-04 20:51:21.321005,-8.29124668732246,-0.7500889798111494
2019-03-04 20:51:21.321151,-8.297978039341533,-0.7496081689526441
2019-03-04 20:51:21.321298,-8.306824959138032,-0.7504015068691778
2019-03-04 20:51:21.321445,-8.302810188469513,-0.7551134532825295
2019-03-04 20:51:21.415944,-8.302497661411484,-0.7523247503031989
2019-03-04 20:51:21.416152,-8.303771810186523,-0.7535748585353127
2019-03-04 20:51:21.416252,-8.300526336891613,-0.7529978855051064
2019-03-04 20:51:21.416341,-8.297208741967925,-0.753598899078238
2019-03-04 20:51:21.416428,-8.291967903610217,-0.7517477772729926
2019-03-04 20:51:21.416513,-8.298362688028337,-0.7463146145718831
2019-03-04 20:51:21.416600,-8.29973299897508,-0.7496081689526441
2019-03-04 20:51:21.416687,-8.299011782687321,-0.7497283716672705
2019-03-04 20:51:21.416772,-8.296559647308943,-0.7517718178159178
2019-03-04 20:51:21.416857,-8.300021485490182,-0.7548970883962022
2019-03-04 20:51:21.416989,-8.298362688028337,-0.7552336559971559
2019-03-04 20:51:21.417078,-8.296415404051391,-0.753598899078238
2019-03-04 20:51:21.417166,-8.298723296172216,-0.7502091825257757
2019-03-04 20:51:21.417252,-8.292520836097498,-0.7484301823493062
2019-03-04 20:51:21.417338,-8.2926169982692,-0.7491994797229147
2019-03-04 20:51:21.417425,-8.292088106324844,-0.75150737184374
2019-03-04 20:51:21.417511,-8.294972971475875,-0.7522526286744231
2019-03-04 20:51:21.417596,-8.296487525680167,-0.7528055611617043
2019-03-04 20:51:21.417683,-8.300406134176987,-0.7546807235098748
2019-03-04 20:51:21.417769,-8.30490171570401,-0.7533584936489853
2019-03-04 20:51:21.417855,-8.297857836626907,-0.7497524122101957
2019-03-04 20:51:21.417939,-8.292112146867769,-0.7526613179041526
2019-03-04 20:51:21.418024,-8.292881444241377,-0.7510746420710852
2019-03-04 20:51:21.418109,-8.294924890390025,-0.750786155555982
2019-03-04 20:51:21.418196,-8.293602660529135,-0.7517958583588431
2019-03-04 20:51:21.418281,-8.299083904316097,-0.7523728313890494
2019-03-04 20:51:21.438521,-8.302233215439307,-0.7525891962753768
2019-03-04 20:51:21.438719,-8.300117647661883,-0.7529257638763306
2019-03-04 20:51:21.438819,-8.29860309345759,-0.7539835477650422
2019-03-04 20:51:21.438910,-8.292953565870153,-0.7478051282332494
2019-03-04 20:51:21.438998,-8.295333579619754,-0.7512188853286368
2019-03-04 20:51:21.439084,-8.291991944153143,-0.7490311959224378
2019-03-04 20:51:21.439169,-8.29357861998621,-0.7495841284097189
2019-03-04 20:51:21.439255,-8.293602660529135,-0.7529978855051064
2019-03-04 20:51:21.439341,-8.298002079884458,-0.7485744256068578
2019-03-04 20:51:21.441879,-8.303218877699242,-0.7501611014399252
2019-03-04 20:51:21.442078,-8.300935026121342,-0.7538152639645653
2019-03-04 20:51:21.442176,-8.295886512107035,-0.7527334395329285
2019-03-04 20:51:21.442266,-8.29682409328112,-0.7526372773612273
2019-03-04 20:51:21.442355,-8.301319674808147,-0.7540797099367432
2019-03-04 20:51:21.442442,-8.299636836803378,-0.7545845613381738
2019-03-04 20:51:21.442528,-8.305574850905918,-0.7544403180806222
2019-03-04 20:51:21.442613,-8.30389201290115,-0.7534065747348359
2019-03-04 20:51:21.442699,-8.299156025944873,-0.7524449530178252
2019-03-04 20:51:21.442785,-8.294588322789071,-0.7524449530178252
2019-03-04 20:51:21.442871,-8.297088539253298,-0.7544403180806222
2019-03-04 20:51:21.442957,-8.296800052738195,-0.752517074646601
2019-03-04 20:51:21.443045,-8.298122282599085,-0.75196414215932
2019-03-04 20:51:21.443131,-8.30033401254821,-0.7512910069574126
2019-03-04 20:51:21.443216,-8.303098674984616,-0.7515554529295905
2019-03-04 20:51:21.443301,-8.305502729277142,-0.754969210024978
2019-03-04 20:51:21.443388,-8.302665945211961,-0.7559548722849138
2019-03-04 20:51:21.444238,-8.299949363861407,-0.7534786963636116
2019-03-04 20:51:21.444394,-8.293891147044238,-0.7530459665909569
2019-03-04 20:51:21.444493,-8.295766309392409,-0.7540075883079674
2019-03-04 20:51:21.444582,-8.29860309345759,-0.7520122232451705
2019-03-04 20:51:21.444767,-8.299228147573649,-0.7502813041545515
2019-03-04 20:51:21.444936,-8.300021485490182,-0.7512669664144873
2019-03-04 20:51:21.445053,-8.299684917889229,-0.7526613179041526
2019-03-04 20:51:21.445143,-8.301824526209577,-0.7529257638763306
2019-03-04 20:51:21.445231,-8.299660877346303,-0.7545364802523232
2019-03-04 20:51:21.445317,-8.297208741967925,-0.756339520971718
2019-03-04 20:51:21.445402,-8.29773763391228,-0.7552817370830064
2019-03-04 20:51:21.445487,-8.301584120780324,-0.7507380744701315
2019-03-04 20:51:21.446692,-8.30033401254821,-0.7515794934725157
2019-03-04 20:51:21.446852,-8.295934593192886,-0.7538393045074906
2019-03-04 20:51:21.446954,-8.29672793110942,-0.7589839806934969
2019-03-04 20:51:21.447044,-8.296920255452822,-0.7569405345448496
2019-03-04 20:51:21.447132,-8.293819025415463,-0.7579021562618601
2019-03-04 20:51:21.447246,-8.296487525680167,-0.757253061602878
2019-03-04 20:51:21.447339,-8.292088106324844,-0.7550894127396043
2019-03-04 20:51:21.447425,-8.297617431197654,-0.7601619672968348
2019-03-04 20:51:21.447511,-8.288794551944083,-0.755522142512259
2019-03-04 20:51:21.447596,-8.293314174014032,-0.7535027369065369
2019-03-04 20:51:21.447683,-8.297857836626907,-0.7563635615146432
2019-03-04 20:51:21.447769,-8.297449147397177,-0.7566280074868211
2019-03-04 20:51:21.447856,-8.29591055264996,-0.7526132368183021
2019-03-04 20:51:21.447942,-8.300718661235015,-0.760089845668059
2019-03-04 20:51:21.448029,-8.293386295642808,-0.754608601881099
2019-03-04 20:51:21.448114,-8.293650741614986,-0.7531661693055832
2019-03-04 20:51:21.448200,-8.297497228483028,-0.7541758721084443
2019-03-04 20:51:21.449202,-8.301487958608623,-0.7545605207952485
2019-03-04 20:51:21.449386,-8.301415836979848,-0.7581906427769632
2019-03-04 20:51:21.449485,-8.30293039118414,-0.7607870214128918
2019-03-04 20:51:21.449574,-8.29973299897508,-0.7601860078397601
2019-03-04 20:51:21.449662,-8.29987724223263,-0.7559548722849138
2019-03-04 20:51:21.449748,-8.294179633559342,-0.7520843448739463
2019-03-04 20:51:21.449835,-8.290982241350282,-0.7520362637880957
2019-03-04 20:51:21.450042,-8.292737200983826,-0.7528055611617043
2019-03-04 20:51:21.450158,-8.287881011312923,-0.7516756556442168
2019-03-04 20:51:21.450247,-8.284707659646788,-0.752781520618779
2019-03-04 20:51:21.450333,-8.298627134000515,-0.7535748585353127
2019-03-04 20:51:21.450420,-8.296968336538672,-0.7546566829669495
2019-03-04 20:51:21.450507,-8.301367755893997,-0.758623372549618
2019-03-04 20:51:21.455760,-8.295213376905128,-0.7579261968047853
2019-03-04 20:51:21.455850,-8.212610071413923,-0.7598975213246569
2019-03-04 20:51:21.455884,-8.278625402286696,-0.7168649494884352
2019-03-04 20:51:21.455916,-8.28855414651483,-0.7178746522912962
2019-03-04 20:51:21.455946,-8.290140822347897,-0.7345828296243544
2019-03-04 20:51:21.455977,-8.241939533782745,-0.7463626956577336
2019-03-04 20:51:21.456007,-8.214533314847944,-0.7299430048397786
2019-03-04 20:51:21.456038,-8.226120856537921,-0.7326836267332586
2019-03-04 20:51:21.456067,-8.231289573266853,-0.7408574113278482
2019-03-04 20:51:21.456097,-8.210831071237454,-0.7314815995869954
2019-03-04 20:51:21.456127,-8.194531583134125,-0.7123453274184856
2019-03-04 20:51:21.456157,-8.250858575208017,-0.7398717490679124
2019-03-04 20:51:21.456187,-8.245377331421057,-0.7774471176600994
2019-03-04 20:51:21.456216,-8.248983412859847,-0.80896426943512
2019-03-04 20:51:21.456246,-8.271581523209594,-0.7909338622411722
2019-03-04 20:51:21.456276,-8.264417441417866,-0.7163360575440794
2019-03-04 20:51:21.456306,-8.257469724512465,-0.6821744460472797
2019-03-04 20:51:21.456335,-8.2241014509322,-0.7521324259597968
2019-03-04 20:51:21.456365,-8.269249590545844,-0.7604264132690127
2019-03-04 20:51:21.456394,-8.286005848964752,-0.7287409776935153
2019-03-04 20:51:21.456424,-8.25799861645682,-0.7368426406593291
2019-03-04 20:51:21.456454,-8.224798626677032,-0.7367224379447028
2019-03-04 20:51:21.456483,-8.200157070178637,-0.7397515463532861
2019-03-04 20:51:21.456557,-8.169793864464028,-0.7722303198453172
2019-03-04 20:51:21.456594,-8.20171970546878,-0.8055745528826578
2019-03-04 20:51:21.456640,-8.228981681146028,-0.8054543501680315
2019-03-04 20:51:21.456674,-8.159456431006165,-0.7498004932960463
2019-03-04 20:51:21.456705,-8.201647583840003,-0.725880153085409
2019-03-04 20:51:21.456735,-8.1580620795165,-0.7473964390035199
2019-03-04 20:51:21.456765,-8.185660622794703,-0.7723264820170183
2019-03-04 20:51:21.456796,-8.217225855655574,-0.7543922369947716
2019-03-04 20:51:21.456826,-8.173063378301864,-0.7472762362888936
2019-03-04 20:51:21.456855,-8.204893057134914,-0.6935215823080042
2019-03-04 20:51:21.456906,-8.284755740732638,-0.8540643279629145
2019-03-04 20:51:21.456941,-8.259344886860635,-0.9512362024668299
2019-03-04 20:51:21.456971,-8.26251823852677,-0.8018001876433914
2019-03-04 20:51:21.458053,-8.163663526018086,-0.6514746727317182
2019-03-04 20:51:21.458109,-8.189266704233493,-0.6866459870313788
2019-03-04 20:51:21.458144,-8.28439513258876,-0.8025694850169999
2019-03-04 20:51:21.458180,-8.432532958094235,-0.8479580300598976
2019-03-04 20:51:21.458219,-8.334711988931337,-0.821825959900136
2019-03-04 20:51:21.458249,-8.301800485666652,-0.7861738347419701
2019-03-04 20:51:21.458280,-8.115149710394904,-0.650729415901035
2019-03-04 20:51:21.458310,-8.078199395918775,-0.6544316595115256
2019-03-04 20:51:21.458340,-8.122241670557857,-0.7068881241744508
2019-03-04 20:51:21.458370,-8.150008497636536,-0.7411218573000261
2019-03-04 20:51:21.458400,-8.13938257766357,-0.7787212664351384
2019-03-04 20:51:21.458430,-8.118347102603964,-0.6624612008485636
2019-03-04 20:51:21.458460,-8.185348095736675,-0.7804521855257573
2019-03-04 20:51:21.458490,-8.218860612574492,-0.9298401192633453
2019-03-04 20:51:21.458519,-8.173736513503771,-0.8311056094692878
2019-03-04 20:51:21.460664,-8.207489435770842,-0.7051091239979812
2019-03-04 20:51:21.460752,-8.256411940623753,-0.6558981326299667
2019-03-04 20:51:21.460786,-8.22003859917783,-0.7093883406386782
2019-03-04 20:51:21.460818,-8.127674833258967,-0.738188911063144
2019-03-04 20:51:21.460848,-8.077910909403672,-0.7880730376330659
2019-03-04 20:51:21.460895,-8.17085164835274,-0.7220336662173669
2019-03-04 20:51:21.460956,-8.279490861832006,-0.6448394828843454
2019-03-04 20:51:21.461003,-8.226793991739829,-0.7871354564589806
2019-03-04 20:51:21.461049,-8.175659756937794,-0.7679030221187697
2019-03-04 20:51:21.461095,-8.212994720100728,-0.6730390397356796
2019-03-04 20:51:21.461141,-8.179193716747807,-0.7443432900520114
2019-03-04 20:51:21.461187,-8.154600241335261,-0.7945159031370366
2019-03-04 20:51:21.461233,-8.30800294574137,-0.8243982979931392
2019-03-04 20:51:21.461278,-8.328485488313694,-0.8369474614001268
2019-03-04 20:51:21.461324,-8.179506243805836,-0.7651383596823644
2019-03-04 20:51:21.461370,-8.049543068751861,-0.7182833415210257
2019-03-04 20:51:21.461415,-8.037330472945825,-0.6682549716935522
2019-03-04 20:51:21.463115,-8.078511922976803,-0.6985220152364591
2019-03-04 20:51:21.463236,-8.107384615030044,-0.6620044305329836
2019-03-04 20:51:21.463289,-8.13673811794179,-0.7306642211275365
2019-03-04 20:51:21.463337,-8.14907091646245,-0.7518920205305442
2019-03-04 20:51:21.463384,-7.903184243422856,-0.6252704809431808
2019-03-04 20:51:21.463431,-7.957107181204222,-0.6757075400003839
2019-03-04 20:51:21.463478,-8.00167834778766,-0.7085709621792192
2019-03-04 20:51:21.463524,-7.959943965269403,-0.6351511440854641
2019-03-04 20:51:21.463571,-7.887509809435583,-0.6192603452118649
2019-03-04 20:51:21.463617,-7.893471864081049,-0.6268331162333229
2019-03-04 20:51:21.463663,-7.9170556366907325,-0.6156061826872249
2019-03-04 20:51:21.463709,-7.934989881712979,-0.6044513707699025
2019-03-04 20:51:21.465827,-7.982518035076225,-0.6150532501999438
2019-03-04 20:51:21.466009,-7.975762642514226,-0.6080814927516174
2019-03-04 20:51:21.466097,-7.960544978842535,-0.6093316009837311
2019-03-04 20:51:21.466176,-7.868445658895849,-0.6012539785608425
2019-03-04 20:51:21.466253,-7.857891860551659,-0.6019511543056751
2019-03-04 20:51:21.466444,-7.8525067789364,-0.6112788849606774
2019-03-04 20:51:21.466547,-7.86986405092844,-0.6102932227007416
2019-03-04 20:51:21.466677,-7.891308215217775,-0.6107740335592469
2019-03-04 20:51:21.466809,-7.918594231437949,-0.6063505736609984
2019-03-04 20:51:21.466939,-7.914867947284534,-0.5922147344209434
2019-03-04 20:51:21.467066,-7.926070840287706,-0.5914694775902603
2019-03-04 20:51:21.467196,-7.906598000518243,-0.5906040180449508
2019-03-04 20:51:21.467330,-7.946745707203433,-0.5888009773255559
2019-03-04 20:51:21.467458,-7.92046939378612,-0.582237909106959
2019-03-04 20:51:21.467588,-7.887774255407761,-0.5898587612142676
2019-03-04 20:51:21.467720,-7.868710104868027,-0.587166220406638
2019-03-04 20:51:21.467883,-7.901862013561966,-0.584425598513158
2019-03-04 20:51:21.468017,-7.999514698924386,-0.6779433104924334
2019-03-04 20:51:21.468154,-8.006005645514207,-0.6699378096983206
2019-03-04 20:51:21.468293,-8.004443010224065,-0.6383004552086737
2019-03-04 20:51:21.468432,-8.01862693054997,-0.678183715921686
2019-03-04 20:51:21.468573,-8.01670368711595,-0.668880025809609
2019-03-04 20:51:21.468713,-8.038244013576985,-0.6823186893048313
2019-03-04 20:51:21.468914,-8.038316135205761,-0.690492473899421
2019-03-04 20:51:21.469033,-8.031753066987164,-0.6675577959487196
2019-03-04 20:51:21.469117,-8.032426202189072,-0.6689521474383848
2019-03-04 20:51:21.469203,-8.0553849206827,-0.6817176757316997
2019-03-04 20:51:21.469287,-8.055817650455355,-0.6672933499765417
2019-03-04 20:51:21.469369,-8.05771685334645,-0.6913579334447305
2019-03-04 20:51:21.469450,-8.04410990605075,-0.6834485948223188
2019-03-04 20:51:21.503184,-8.067284989430705,-0.6875354871196135
2019-03-04 20:51:21.503386,-8.076155949770127,-0.6983056503501317
2019-03-04 20:51:21.503484,-8.078872531120682,-0.7032099211068854
2019-03-04 20:51:21.503573,-8.054591582766166,-0.6910694469296274
2019-03-04 20:51:21.503660,-8.071756530414804,-0.6933052174216768
2019-03-04 20:51:21.503745,-8.097071222115106,-0.7072968134041803
2019-03-04 20:51:21.503832,-8.06858317874867,-0.6850593111983114
2019-03-04 20:51:21.503917,-8.070241976210513,-0.6914781361593568
2019-03-04 20:51:21.504003,-8.085411558796354,-0.7109750164717455
2019-03-04 20:51:21.504089,-8.10111003332655,-0.7128261382769908
2019-03-04 20:51:21.504174,-8.093417059590466,-0.7036907319653907
2019-03-04 20:51:21.504259,-8.097263546458509,-0.7093402595528276
2019-03-04 20:51:21.504344,-8.098153046546743,-0.7131867464208698
2019-03-04 20:51:21.504429,-8.098225168175519,-0.7195815308389899
2019-03-04 20:51:21.504552,-8.105341168881397,-0.6929446092777979
2019-03-04 20:51:21.504638,-8.11526991310953,-0.7029214345917822
2019-03-04 20:51:21.504724,-8.111663831670741,-0.699339393695918
2019-03-04 20:51:21.504809,-8.222178207498178,-0.7279235992340564
2019-03-04 20:51:21.504968,-8.218475963887688,-0.732443221304006
2019-03-04 20:51:21.505079,-8.226241059252548,-0.7324913023898565
2019-03-04 20:51:21.505167,-8.245377331421057,-0.737371532603685
2019-03-04 20:51:21.505253,-8.253503034929796,-0.730712302213387
2019-03-04 20:51:21.505337,-8.225856410565743,-0.7321306942459775
2019-03-04 20:51:21.505422,-8.201455259496601,-0.7382610326919198
2019-03-04 20:51:21.505508,-8.225856410565743,-0.7321306942459775
2019-03-04 20:51:21.505594,-8.20775388174302,-0.7419392357594851
2019-03-04 20:51:21.505680,-8.226745910653978,-0.7386216408357987
2019-03-04 20:51:21.507142,-8.242901155499755,-0.7350636404828597
2019-03-04 20:51:21.507331,-8.238117087457628,-0.7356165729701407
2019-03-04 20:51:21.507429,-8.229943302863038,-0.7332605997634649
2019-03-04 20:51:21.507518,-8.226192978166697,-0.7356165729701407
2019-03-04 20:51:21.507605,-8.230904924580049,-0.737828302919265
2019-03-04 20:51:21.509249,-8.254007886331227,-0.7379004245480408
2019-03-04 20:51:21.509453,-8.241843371611044,-0.7379004245480408
2019-03-04 20:51:21.512250,-8.23013562720644,-0.7336212079073439
2019-03-04 20:51:21.512455,-8.233453222130127,-0.7339818160512228
2019-03-04 20:51:21.512658,-8.243454087987036,-0.7340779782229239
2019-03-04 20:51:21.512781,-8.238237290172254,-0.7349674783111586
2019-03-04 20:51:21.512928,-8.221745477725523,-0.7372032488032082
2019-03-04 20:51:21.513046,-8.208090449343974,-0.7367705190305534
2019-03-04 20:51:21.513135,-8.213259166072906,-0.7441509657086093
2019-03-04 20:51:21.513223,-8.227370964770035,-0.7449443036251431
2019-03-04 20:51:21.514436,-8.226553586310576,-0.744126925165684
2019-03-04 20:51:21.514593,-8.225447721336014,-0.7404246815551935
2019-03-04 20:51:21.514691,-8.231265532723928,-0.7369628433739555
2019-03-04 20:51:21.514781,-8.245136925991805,-0.7365781946871512
2019-03-04 20:51:21.516544,-8.24520904762058,-0.7426364115043177
2019-03-04 20:51:21.516738,-8.229294208204056,-0.7430210601911219
2019-03-04 20:51:21.516838,-8.221312747952869,-0.7392707354947808
2019-03-04 20:51:21.519481,-8.226409343053025,-0.733813532250746
2019-03-04 20:51:21.519637,-8.238742141573685,-0.7363377892578986
2019-03-04 20:51:21.519735,-8.238141128000553,-0.7350636404828597
2019-03-04 20:51:21.521632,-8.24511288544888,-0.7341500998516997
2019-03-04 20:51:21.521827,-8.26018630586302,-0.7393428571235566
2019-03-04 20:51:21.521927,-8.258671751658728,-0.733813532250746
2019-03-04 20:51:21.522016,-8.246266831509292,-0.7386216408357987
2019-03-04 20:51:21.524553,-8.24612258825174,-0.733909694422447
2019-03-04 20:51:21.524707,-8.229462492004533,-0.7427806547618693
2019-03-04 20:51:21.524806,-8.21359573367386,-0.7416026681585314
2019-03-04 20:51:21.524937,-8.219870315377353,-0.7407372086132219
2019-03-04 20:51:21.527284,-8.2401845741492,-0.7407852896990724
2019-03-04 20:51:21.527490,-8.245329250335207,-0.7416026681585314
2019-03-04 20:51:21.527592,-8.219269301804221,-0.7402804382976419
2019-03-04 20:51:21.527683,-8.210181976578472,-0.7441990467944598
2019-03-04 20:51:21.527770,-8.223716802245395,-0.7457376415416768
2019-03-04 20:51:21.527856,-8.230327951549842,-0.7328519105337354
2019-03-04 20:51:21.530902,-8.227923897257316,-0.7326836267332586
2019-03-04 20:51:21.531107,-8.249656548061754,-0.7362175865432723
2019-03-04 20:51:21.531206,-8.243934898845541,-0.7322989780464544
2019-03-04 20:51:21.531296,-8.236145762937756,-0.7336452484502691
2019-03-04 20:51:21.539760,-8.239751844376546,-0.736193546000347
2019-03-04 20:51:21.539962,-8.273288401757288,-0.7342222214804754
2019-03-04 20:51:21.540063,-8.257758211027568,-0.7510746420710852
2019-03-04 20:51:21.540153,-8.252325048326458,-0.7695377790376877
2019-03-04 20:51:21.545871,-8.229775019062561,-0.755882750656138
2019-03-04 20:51:21.546075,-8.179458162719985,-0.7357608162276923
2019-03-04 20:51:21.546174,-8.190300447579279,-0.7209518417857299
2019-03-04 20:51:21.554232,-8.215302612221553,-0.7207114363564773
2019-03-04 20:51:21.554436,-8.229943302863038,-0.7256878287420069
2019-03-04 20:51:21.554536,-8.243069439300232,-0.7305199778699849
2019-03-04 20:51:21.554627,-8.250209480549035,-0.7386216408357987
2019-03-04 20:51:21.560919,-8.259128521974308,-0.7421556006458124
2019-03-04 20:51:21.561127,-8.26109984649418,-0.7397515463532861
2019-03-04 20:51:21.561226,-8.236265965652382,-0.7345107079955786
2019-03-04 20:51:21.561316,-8.236698695425037,-0.7330201943342123
2019-03-04 20:51:21.594312,-8.206864381654785,-0.7422277222745882
2019-03-04 20:51:21.594517,-8.191983285584048,-0.7451847090543957
2019-03-04 20:51:21.594618,-8.213812098560187,-0.7468435065162389
2019-03-04 20:51:21.597123,-8.238141128000553,-0.7429248980194209
2019-03-04 20:51:21.597304,-8.254656980990209,-0.7376359785758629
2019-03-04 20:51:21.597403,-8.270379496063331,-0.7351357621116354
2019-03-04 20:51:21.599799,-8.25982569771914,-0.736650316315927
2019-03-04 20:51:21.600002,-8.249199777746174,-0.733356761935166
2019-03-04 20:51:21.600101,-8.26165277898146,-0.7330201943342123
2019-03-04 20:51:21.600192,-8.285116348876517,-0.7342462620234007
2019-03-04 20:51:21.602249,-8.26662917136699,-0.7445356143954135
2019-03-04 20:51:21.602456,-8.262277833097517,-0.7420834790170366
2019-03-04 20:51:21.602556,-8.269514036518022,-0.7435499521354777
2019-03-04 20:51:21.602777,-8.263816427844734,-0.745208749597321
2019-03-04 20:51:21.604503,-8.259080440888457,-0.7391505327801545
2019-03-04 20:51:21.604621,-8.254656980990209,-0.746122290228481
2019-03-04 20:51:21.604722,-8.245233088163506,-0.752685358447078
2019-03-04 20:51:21.607041,-8.235953438594354,-0.7492475608087652
2019-03-04 20:51:21.607224,-8.248454520915491,-0.7429489385623461
2019-03-04 20:51:21.607311,-8.252301007783533,-0.7383812354065461
2019-03-04 20:51:21.607392,-8.236193844023607,-0.7407131680702966
2019-03-04 20:51:21.609753,-8.262638441241396,-0.7429729791052714
2019-03-04 20:51:21.609939,-8.266989779510869,-0.7406170058985956
2019-03-04 20:51:21.610028,-8.25105089955142,-0.7408574113278482
2019-03-04 20:51:21.610108,-8.258743873287504,-0.7466031010869862
2019-03-04 20:51:21.615533,-8.257109116368586,-0.7501611014399252
2019-03-04 20:51:21.615720,-8.242564587898801,-0.7350636404828597
2019-03-04 20:51:21.615808,-8.247012088339975,-0.7386697219216493
2019-03-04 20:51:21.633594,-8.258743873287504,-0.7426364115043177
2019-03-04 20:51:21.633796,-8.279803388890034,-0.7455453171982747
2019-03-04 20:51:21.633896,-8.282471889154738,-0.748502303978082
2019-03-04 20:51:21.633987,-8.294395998445669,-0.7404006410122682
2019-03-04 20:51:21.635398,-8.297401066311327,-0.7444634927666377
2019-03-04 20:51:21.635578,-8.31175327043771,-0.7380446678055924
2019-03-04 20:51:21.635677,-8.266244522680186,-0.737732140747564
2019-03-04 20:51:21.638481,-8.252733737556188,-0.7433095467062251
2019-03-04 20:51:21.638686,-8.274418307274775,-0.7466031010869862
2019-03-04 20:51:21.638786,-8.276004983107843,-0.7485984661497831
2019-03-04 20:51:21.638877,-8.273961536959195,-0.7472281552030431
2019-03-04 20:51:21.641672,-8.273168199042662,-0.7463626956577336
2019-03-04 20:51:21.641876,-8.290068700719122,-0.7443432900520114
2019-03-04 20:51:21.641978,-8.274730834332804,-0.7392226544089303
2019-03-04 20:51:21.652617,-8.261724900610236,-0.744030762993983
2019-03-04 20:51:21.652820,-8.254007886331227,-0.7522766692173484
2019-03-04 20:51:21.652966,-8.261027724865404,-0.7557625479415117
2019-03-04 20:51:21.659869,-8.252757778099113,-0.7426364115043177
2019-03-04 20:51:21.660072,-8.23150593815318,-0.730616140041686
2019-03-04 20:51:21.660172,-8.251002818465569,-0.7308325049280133
2019-03-04 20:51:21.660263,-8.283193105442496,-0.7360733432857207
2019-03-04 20:51:21.660349,-8.279202375316903,-0.7375398164041619
2019-03-04 20:51:21.665613,-8.290958200807356,-0.7389822489796777
2019-03-04 20:51:21.665815,-8.301127350464744,-0.745304911769022
2019-03-04 20:51:21.665916,-8.306776878052181,-0.7438384386505809
2019-03-04 20:51:21.699797,-8.290717795378104,-0.7411699383858766
2019-03-04 20:51:21.699999,-8.283794119015628,-0.745304911769022
2019-03-04 20:51:21.700099,-8.281630470152354,-0.7473964390035199
2019-03-04 20:51:21.700189,-8.277327212968732,-0.7409054924136987
2019-03-04 20:51:21.702234,-8.273841334244569,-0.7420834790170366
2019-03-04 20:51:21.702430,-8.264609765761268,-0.7385495192070229
2019-03-04 20:51:21.702529,-8.272326780040277,-0.7407372086132219
2019-03-04 20:51:21.702618,-8.284539375846311,-0.7394871003811082
2019-03-04 20:51:21.704322,-8.281317943094326,-0.7414584249009798
2019-03-04 20:51:21.704525,-8.280620767349493,-0.7467233038016126
2019-03-04 20:51:21.706767,-8.278433077943294,-0.7487186688644094
2019-03-04 20:51:21.706961,-8.269850604118975,-0.7484782634351568
2019-03-04 20:51:21.707059,-8.265523306392428,-0.7456414793699757
2019-03-04 20:51:21.707193,-8.272398901669053,-0.7471560335742673
2019-03-04 20:51:21.709766,-8.28809737619925,-0.7462665334860326
2019-03-04 20:51:21.709968,-8.280260159205614,-0.7409776140424745
2019-03-04 20:51:21.710067,-8.256652346053006,-0.7439586413652072
2019-03-04 20:51:21.710157,-8.254656980990209,-0.7449923847109936
2019-03-04 20:51:21.712229,-8.26384046838766,-0.7422277222745882
2019-03-04 20:51:21.712430,-8.261941265496564,-0.7460742091426305
2019-03-04 20:51:21.712529,-8.268191806657132,-0.7423238844462893
2019-03-04 20:51:21.713872,-8.269922725747751,-0.7440548035369082
2019-03-04 20:51:21.714032,-8.271677685381295,-0.7483099796346799
2019-03-04 20:51:21.714162,-8.278817726630098,-0.7478291687761747
2019-03-04 20:51:21.718604,-8.272903753070484,-0.7435499521354777
2019-03-04 20:51:21.718808,-8.27850519957207,-0.7473483579176694
2019-03-04 20:51:21.718908,-8.286703024709585,-0.7448241009105167
2019-03-04 20:51:21.718997,-8.280188037576838,-0.7385735597499482
2019-03-04 20:51:21.752243,-8.29540570124853,-0.7415545870726808
2019-03-04 20:51:21.752445,-8.272302739497352,-0.7444154116807872
2019-03-04 20:51:21.752546,-8.28302482164202,-0.7490071553795126
2019-03-04 20:51:21.752636,-8.276509834509273,-0.7444154116807872
2019-03-04 20:51:21.754701,-8.278745605001323,-0.7462424929431073
2019-03-04 20:51:21.754905,-8.258383265143625,-0.7469637092308652
2019-03-04 20:51:21.755005,-8.257782251570493,-0.7507140339272063
2019-03-04 20:51:21.755095,-8.260330549120571,-0.7452327901402462
2019-03-04 20:51:21.757330,-8.26388854947351,-0.742660452047243
2019-03-04 20:51:21.757532,-8.278817726630098,-0.7380206272626672
2019-03-04 20:51:21.757633,-8.272855671984633,-0.7404968031839693
2019-03-04 20:51:21.759784,-8.274730834332804,-0.7343424241951018
2019-03-04 20:51:21.759988,-8.268384131000534,-0.7441750062515345
2019-03-04 20:51:21.760087,-8.262638441241396,-0.741746911416083
2019-03-04 20:51:21.760177,-8.26622048213726,-0.7366983974017776
2019-03-04 20:51:21.760264,-8.280572686263643,-0.7447760198246661
2019-03-04 20:51:21.760351,-8.274923158676206,-0.7435499521354777
2019-03-04 20:51:21.760436,-8.274682753246953,-0.7458818847992283
2019-03-04 20:51:21.760522,-8.27800034817064,-0.7418190330448587
2019-03-04 20:51:21.762966,-8.281221780922625,-0.7420353979311861
2019-03-04 20:51:21.763170,-8.262037427668265,-0.7435259115925524
2019-03-04 20:51:21.763269,-8.271076671808164,-0.7435980332213282
2019-03-04 20:51:21.771098,-8.290501430491776,-0.7415305465297556
2019-03-04 20:51:21.771300,-8.294876809304174,-0.7439586413652072
2019-03-04 20:51:21.771399,-8.278865807715949,-0.7484782634351568
2019-03-04 20:51:21.771489,-8.26622048213726,-0.7477810876903241
2019-03-04 20:51:21.806733,-8.263455819700855,-0.7443192495090861
2019-03-04 20:51:21.806928,-8.255883048679397,-0.7427806547618693
2019-03-04 20:51:21.809749,-8.259657413918664,-0.7432614656203745
2019-03-04 20:51:21.809954,-8.274370226188925,-0.7453770333977978
2019-03-04 20:51:21.810055,-8.300261890919435,-0.7443432900520114
2019-03-04 20:51:21.810146,-8.309397297231035,-0.7444394522237124
2019-03-04 20:51:21.810233,-8.2858616057072,-0.7488869526648863
2019-03-04 20:51:21.810320,-8.281438145808952,-0.7475406822610715
2019-03-04 20:51:21.810406,-8.281582389066504,-0.7460982496855557
2019-03-04 20:51:21.810493,-8.27165364483837,-0.7460742091426305
2019-03-04 20:51:21.812195,-8.268888982401965,-0.7449202630822178
2019-03-04 20:51:21.812398,-8.263984711645211,-0.744126925165684
2019-03-04 20:51:21.812497,-8.275884780393216,-0.7429489385623461
2019-03-04 20:51:21.814831,-8.268432212086385,-0.7405208437268945
2019-03-04 20:51:21.815036,-8.270980509636463,-0.7450164252539189
2019-03-04 20:51:21.815135,-8.282784416212767,-0.7438624791935061
2019-03-04 20:51:21.815226,-8.292689119897975,-0.7436220737642535
2019-03-04 20:51:21.817308,-8.29677601219527,-0.741386303272204
2019-03-04 20:51:21.817510,-8.291439011665862,-0.7417949925019335
2019-03-04 20:51:21.817610,-8.291318808951235,-0.7423960060750651
2019-03-04 20:51:21.819334,-8.280668848435344,-0.7379244650909661
2019-03-04 20:51:21.819479,-8.273312442300213,-0.7394871003811082
2019-03-04 20:51:21.819545,-8.272903753070484,-0.7416747897873072
2019-03-04 20:51:21.819605,-8.278577321200846,-0.7420594384741114
2019-03-04 20:51:21.823596,-8.28307290272787,-0.7450164252539189
2019-03-04 20:51:21.823783,-8.27667811830975,-0.7414103438151293
2019-03-04 20:51:21.823896,-8.271317077237416,-0.7462424929431073
2019-03-04 20:51:21.824002,-8.278937929344725,-0.7456414793699757
2019-03-04 20:51:21.856611,-8.267398468740598,-0.7407372086132219
2019-03-04 20:51:21.856766,-8.261340251923432,-0.7394149787523324
2019-03-04 20:51:21.856840,-8.264032792731062,-0.7447760198246661
2019-03-04 20:51:21.859611,-8.27069202312136,-0.7461944118572568
2019-03-04 20:51:21.859767,-8.27850519957207,-0.7517237367300673
2019-03-04 20:51:21.859840,-8.27941874020323,-0.7514112096720389
2019-03-04 20:51:21.859907,-8.284154727159507,-0.7517237367300673
2019-03-04 20:51:21.862239,-8.286029889507677,-0.7467473443445378
2019-03-04 20:51:21.862396,-8.283505632500525,-0.7446077360241893
2019-03-04 20:51:21.862470,-8.285140389419443,-0.7476368444327726
2019-03-04 20:51:21.864711,-8.287520403169044,-0.7451606685114704
2019-03-04 20:51:21.864932,-8.294059430844715,-0.7459540064280041
2019-03-04 20:51:21.865027,-8.293362255099883,-0.7490071553795126
2019-03-04 20:51:21.865108,-8.298891579972695,-0.7508342366418326
2019-03-04 20:51:21.867168,-8.291198606236609,-0.746579060544061
2019-03-04 20:51:21.867351,-8.290116781804972,-0.7434778305067019
2019-03-04 20:51:21.867442,-8.29353053890036,-0.7460742091426305
2019-03-04 20:51:21.869644,-8.285020186704816,-0.742756614218944
